ECG_P_Onsets	ECG_P_Peaks	ECG_P_Offsets	ECG_Q_Peaks	ECG_R_Peaks	ECG_S_Peaks	ECG_T_Onsets	ECG_T_Peaks	ECG_T_Offsets	ECG_R_Offsets	label
0	0.145985401459854	0.255474452554746	0.357664233576642	0.445255474452554	0.576642335766425	0.642335766423358	0.824817518248175	1	0.642335766423358	2
0	0.162601626016261	0.284552845528453	0.373983739837398	0.479674796747966	0.54471544715447	0.601626016260162	0.804878048780487	1	0.61788617886179	2
0	0.0860927152317875	0.172185430463575	0.271523178807947	0.350993377483444	0.410596026490066	0.675496688741722	0.841059602649006	1	0.470198675496688	3
0	0.0752688172043012	0.139784946236558	0.344086021505376	0.397849462365591	0.451612903225806	0.741935483870967	0.876344086021505	1	0.5	4
0	0.144927536231881	0.253623188405798	0.355072463768112	0.449275362318836	0.550724637681157	0.666666666666665	0.847826086956522	1	0.601449275362314	5
0	0.132450331125828	0.225165562913906	0.364238410596025	0.450331125827816	0.596026490066225	0.688741721854306	0.854304635761591	1	0.655629139072847	2
0	0.140845070422534	0.246478873239436	0.295774647887323	0.387323943661972	0.443661971830986	0.894366197183099	1	1	0.507042253521126	4
0	0.00775193798449527	0.124031007751938	0.395348837209302	0.457364341085271	0.612403100775193	0.620155038759689	0.813953488372093	1	0.682170542635658	2
0	0.155038759689923	0.240310077519377	0.240310077519377	0.333333333333331	0.387596899224805	0.643410852713176	0.837209302325582	1	0.457364341085269	3
0	0.162162162162163	0.297297297297297	0.351351351351351	0.423423423423424	0.504504504504506	0.585585585585586	0.810810810810811	1	0.585585585585586	5
0	0.0975609756097564	0.0975609756097564	0.105691056910568	0.211382113821137	0.357723577235773	0.796747967479675	1	1	0.43089430894309	1
0	0.147286821705426	0.209302325581396	0.356589147286821	0.434108527131782	0.511627906976744	0.682170542635659	0.875968992248062	1	0.542635658914728	5
0	0.135135135135135	0.195945945945945	0.432432432432432	0.506756756756756	0.554054054054054	0.695945945945945	0.864864864864865	1	0.614864864864864	2
0	0.0805369127516779	0.181208053691276	0.214765100671141	0.302013422818791	0.463087248322147	0.751677852348994	0.892617449664429	1	0.463087248322147	3
0	0.088888888888889	0.200000000000001	0.348148148148149	0.414814814814815	0.481481481481483	0.681481481481482	0.866666666666668	1	0.548148148148149	5
0	0.151515151515152	0.227272727272727	0.340909090909091	0.439393939393939	0.492424242424243	0.666666666666666	0.825757575757576	1	0.56060606060606	5
0	0.136363636363636	0.21969696969697	0.348484848484849	0.43939393939394	0.515151515151516	0.666666666666667	0.856060606060607	1	0.583333333333334	5
0	0.109375000000002	0.226562499999999	0.335937500000001	0.382812499999999	0.445312499999999	0.617187500000001	0.8125	1	0.515625000000002	5
0	0.100775193798449	0.147286821705424	0.248062015503876	0.310077519379845	0.472868217054263	0.620155038759687	0.813953488372093	1	0.542635658914727	5
0	0.0685714285714285	0.154285714285715	0.222857142857143	0.279999999999999	0.417142857142856	0.765714285714284	0.862857142857143	1	0.457142857142857	3
0	0.15702479338843	0.190082644628099	0.190082644628099	0.272727272727273	0.347107438016529	0.900826446280992	1	1	0.421487603305785	3
0	0.0952380952380954	0.214285714285716	0.246031746031747	0.3015873015873	0.388888888888889	0.658730158730161	0.857142857142859	1	0.460317460317459	3
0	0.114285714285714	0.2	0.291428571428572	0.348571428571429	0.445714285714285	0.754285714285714	0.897142857142857	1	0.497142857142857	3
0	0.117647058823532	0.205882352941177	0.317647058823531	0.364705882352943	0.464705882352945	0.82352941176471	0.876470588235295	1	0.51764705882353	4
0	0.132653061224489	0.265306122448978	0.438775510204075	0.520408163265299	0.602040816326524	0.602040816326524	0.755102040816326	1	0.683673469387749	2
0	0.058064516129029	0.103225806451613	0.212903225806449	0.296774193548384	0.445161290322582	0.812903225806451	0.929032258064521	1	0.503225806451611	3
0	0.125786163522013	0.220125786163523	0.257861635220127	0.327044025157233	0.452830188679246	0.817610062893082	0.880503144654089	1	0.509433962264151	3
0	0.138888888888889	0.138888888888889	0.145833333333333	0.23611111111111	0.402777777777776	0.874999999999998	0.951388888888888	1	0.444444444444444	3
0	0.00793650793651057	0.111111111111113	0.404761904761905	0.499999999999997	0.57142857142857	0.611111111111109	0.80952380952381	1	0.642857142857144	2
0	0.118343195266272	0.183431952662723	0.307692307692308	0.349112426035504	0.3905325443787	0.710059171597631	0.857988165680473	1	0.443786982248522	3
0	0.0917431192660551	0.229357798165139	0.311926605504587	0.412844036697249	0.477064220183487	0.651376146788992	0.880733944954129	1	0.522935779816515	5
0	0.145985401459851	0.175182481751826	0.175182481751826	0.255474452554746	0.430656934306572	0.708029197080291	0.890510948905112	1	0.430656934306572	1
0	0.0875000000000001	0.118749999999999	0.2625	0.3375	0.487500000000001	0.69375	0.85	1	0.54375	4
0	0.125786163522013	0.220125786163521	0.371069182389937	0.452830188679244	0.509433962264151	0.70440251572327	0.849056603773585	1	0.566037735849056	5
0	0.0516129032258065	0.148387096774194	0.361290322580645	0.393548387096774	0.458064516129032	0.683870967741936	0.845161290322581	1	0.516129032258065	4
0	0.129310344827586	0.241379310344828	0.241379310344828	0.336206896551724	0.543103448275862	0.620689655172414	0.836206896551724	1	0.620689655172414	5
0	0.129032258064516	0.161290322580647	0.18709677419355	0.270967741935485	0.374193548387098	0.780645161290321	0.883870967741934	1	0.406451612903226	1
0	0.128571428571427	0.235714285714286	0.27857142857143	0.35	0.435714285714286	0.821428571428575	1	1	0.5	3
0	0.143884892086331	0.25179856115108	0.467625899280574	0.539568345323741	0.669064748201437	0.705035971223019	0.884892086330935	1	0.733812949640286	2
0	0.132450331125831	0.2317880794702	0.410596026490069	0.476821192052981	0.496688741721856	0.675496688741725	0.841059602649006	1	0.556291390728481	5
0	0.0927835051546381	0.175257731958762	0.175257731958762	0.257731958762886	0.34020618556701	0.556701030927833	0.814432989690721	1	0.371134020618555	1
0	0.0855263157894735	0.138157894736842	0.361842105263158	0.421052631578944	0.460526315789472	0.697368421052634	0.85526315789474	1	0.5	4
0	0.13245033112583	0.225165562913911	0.264900662251655	0.350993377483442	0.490066225165566	0.675496688741721	0.841059602649007	1	0.549668874172184	5
0	0.143884892086331	0.23021582733813	0.453237410071941	0.517985611510793	0.597122302158272	0.647482014388489	0.827338129496403	1	0.654676258992805	2
0	0.18348623853211	0.32110091743119	0.559633027522935	0.678899082568806	0.798165137614677	0.798165137614677	0.926605504587156	1	0.880733944954125	2
0	0.114457831325302	0.204819277108434	0.41566265060241	0.493975903614458	0.548192771084337	0.789156626506024	0.93975903614458	1	0.602409638554218	2
0	0.00704225352112677	0.112676056338028	0.359154929577465	0.429577464788732	0.492957746478873	0.71830985915493	0.894366197183099	1	0.556338028169014	4
0	0.140845070422535	0.246478873239438	0.380281690140847	0.471830985915494	0.542253521126761	0.690140845070425	0.830985915492961	1	0.605633802816904	2
0	0.142857142857143	0.249999999999999	0.457142857142857	0.528571428571428	0.592857142857143	0.8	0.892857142857143	1	0.657142857142857	2
0	0.106508875739646	0.195266272189349	0.349112426035504	0.42603550295858	0.568047337278107	0.710059171597634	0.857988165680473	1	0.568047337278107	4
0	0.136986301369863	0.226027397260274	0.226027397260274	0.287671232876711	0.383561643835617	0.773972602739726	0.835616438356164	1	0.445205479452055	3
0	0.116959064327486	0.204678362573098	0.409356725146198	0.467836257309942	0.573099415204678	0.725146198830411	0.871345029239765	1	0.625730994152046	2
0	0.140845070422535	0.246478873239435	0.471830985915491	0.528169014084506	0.58450704225352	0.669014084507041	0.845070422535209	1	0.64788732394366	2
0	0.189999999999999	0.269999999999999	0.409999999999999	0.489999999999999	0.569999999999999	0.569999999999999	0.76	1	0.629999999999999	2
0	0.0869565217391306	0.195652173913045	0.253623188405798	0.311594202898552	0.391304347826086	0.840579710144929	0.905797101449276	1	0.456521739130436	3
0	0.0480769230769221	0.0961538461538464	0.317307692307692	0.442307692307693	0.471153846153846	0.528846153846154	0.769230769230771	1	0.557692307692309	5
0	0.120000000000002	0.16	0.16	0.213333333333334	0.326666666666666	0.773333333333334	0.846666666666669	1	0.386666666666669	1
0	0.109289617486337	0.169398907103824	0.37158469945355	0.420765027322405	0.524590163934427	0.83606557377049	0.890710382513663	1	0.573770491803277	4
0	0.0070921985815595	0.113475177304965	0.361702127659576	0.432624113475177	0.496453900709219	0.723404255319148	0.900709219858158	1	0.553191489361701	4
0	0.0762711864406789	0.0762711864406789	0.0847457627118644	0.194915254237289	0.211864406779662	0.669491525423728	0.88135593220339	1	0.288135593220339	1
0	0.188679245283019	0.330188679245281	0.367924528301884	0.443396226415092	0.5188679245283	0.632075471698111	0.867924528301884	1	0.603773584905657	5
0	0.12269938650307	0.214723926380369	0.306748466257673	0.386503067484666	0.533742331288347	0.699386503067488	0.852760736196319	1	0.533742331288347	5
0	0.125786163522012	0.220125786163523	0.232704402515722	0.30188679245283	0.452830188679245	0.761006289308175	0.849056603773585	1	0.452830188679245	3
0	0.111731843575419	0.195530726256983	0.279329608938548	0.340782122905028	0.458100558659218	0.726256983240223	0.865921787709497	1	0.508379888268156	3
0	0.106382978723404	0.212765957446809	0.390070921985815	0.446808510638297	0.5177304964539	0.652482269503545	0.829787234042553	1	0.581560283687942	5
0	0.125	0.218750000000001	0.318750000000001	0.381249999999999	0.437499999999999	0.756249999999999	0.85	1	0.493750000000001	4
0	0.157480314960627	0.188976377952756	0.188976377952756	0.275590551181104	0.377952755905513	0.708661417322835	0.905511811023625	1	0.433070866141731	1
0	0.0728476821192054	0.172185430463576	0.384105960264901	0.470198675496688	0.536423841059602	0.715231788079471	0.841059602649006	1	0.589403973509933	4
0	0.107913669064749	0.187050359712229	0.201438848920864	0.294964028776978	0.446043165467625	0.66906474820144	0.848920863309353	1	0.489208633093526	3
0	0.125786163522013	0.22012578616352	0.301886792452831	0.352201257861636	0.440251572327044	0.89308176100629	0.937106918238995	1	0.496855345911949	3
0	0.120805369127515	0.167785234899325	0.167785234899325	0.221476510067111	0.322147651006712	0.758389261744963	0.838926174496644	1	0.382550335570466	1
0	0.153846153846158	0.269230769230771	0.384615384615384	0.484615384615383	0.538461538461541	0.692307692307692	0.853846153846153	1	0.607692307692306	2
0	0.143884892086331	0.237410071942446	0.237410071942446	0.309352517985613	0.446043165467625	0.76978417266187	0.863309352517988	1	0.510791366906474	3
0	0.155038759689923	0.271317829457365	0.356589147286824	0.395348837209304	0.457364341085273	0.697674418604654	0.813953488372093	1	0.527131782945737	5
0	0.130718954248366	0.228758169934641	0.274509803921569	0.359477124183007	0.418300653594772	0.699346405228758	0.849673202614379	1	0.477124183006536	3
0	0.0462962962962955	0.185185185185186	0.509259259259258	0.583333333333333	0.657407407407407	0.657407407407407	0.777777777777777	1	0.74074074074074	2
0	0.175438596491228	0.175438596491228	0.184210526315789	0.298245614035088	0.359649122807017	0.570175438596491	0.789473684210528	1	0.421052631578948	1
0	0.121212121212121	0.212121212121212	0.309090909090909	0.387878787878787	0.521212121212122	0.848484848484849	1	1	0.575757575757576	4
0	0.128205128205128	0.198717948717949	0.237179487179486	0.320512820512822	0.474358974358976	0.685897435897437	0.846153846153846	1	0.474358974358976	3
0	0.148148148148148	0.237037037037037	0.237037037037037	0.288888888888889	0.333333333333333	0.733333333333333	0.918518518518519	1	0.37037037037037	3
0	0.122137404580153	0.236641221374047	0.267175572519085	0.366412213740459	0.503816793893129	0.625954198473282	0.816793893129774	1	0.572519083969468	5
0	0.0909090909090903	0.195804195804193	0.300699300699302	0.363636363636361	0.440559440559439	0.657342657342654	0.832167832167832	1	0.503496503496505	5
0	0.137931034482759	0.227586206896551	0.310344827586206	0.386206896551724	0.482758620689656	0.662068965517242	0.83448275862069	1	0.544827586206896	5
0	0.0785714285714286	0.185714285714285	0.3	0.371428571428571	0.435714285714286	0.65	0.828571428571428	1	0.478571428571429	5
0	0.0588235294117647	0.0980392156862745	0.0980392156862745	0.176470588235294	0.362745098039217	0.519607843137254	0.764705882352941	1	0.450980392156863	1
0	0.112426035502959	0.201183431952662	0.272189349112425	0.331360946745562	0.390532544378697	0.710059171597634	0.857988165680473	1	0.443786982248522	3
0	0.149606299212599	0.267716535433072	0.291338582677164	0.346456692913386	0.535433070866141	0.614173228346454	0.811023622047244	1	0.535433070866141	5
0	0.135135135135135	0.236486486486487	0.256756756756758	0.337837837837839	0.398648648648649	0.66891891891892	0.837837837837838	1	0.459459459459459	3
0	0.15625	0.257812499999999	0.257812499999999	0.351562499999999	0.40625	0.648437500000001	0.84375	1	0.46875	5
0	0.188679245283019	0.188679245283019	0.19811320754717	0.320754716981132	0.40566037735849	0.537735849056604	0.773584905660377	1	0.490566037735849	5
0	0.0630630630630631	0.153153153153153	0.486486486486486	0.558558558558558	0.63063063063063	0.63063063063063	0.783783783783784	1	0.711711711711712	2
0	0.136752136752137	0.264957264957266	0.273504273504274	0.358974358974357	0.487179487179487	0.581196581196582	0.794871794871795	1	0.521367521367521	5
0	0.0949367088607575	0.158227848101265	0.405063291139238	0.430379746835441	0.462025316455696	0.753164556962024	0.91139240506329	1	0.493670886075949	4
0	0.165289256198347	0.256198347107438	0.264462809917356	0.371900826446281	0.446280991735538	0.59504132231405	0.801652892561984	1	0.495867768595042	5
0	0.140845070422533	0.176056338028166	0.183098591549295	0.274647887323943	0.436619718309857	0.697183098591547	0.873239436619719	1	0.443661971830986	1
0	0.0794701986754969	0.178807947019867	0.264900662251656	0.33112582781457	0.390728476821192	0.761589403973509	0.913907284768212	1	0.450331125827816	3
0	0.119760479041914	0.173652694610778	0.389221556886225	0.449101796407187	0.497005988023954	0.84431137724551	0.904191616766467	1	0.520958083832334	4
0	0.0815217391304348	0.130434782608696	0.353260869565218	0.407608695652174	0.456521739130435	0.75	0.885869565217391	1	0.505434782608695	4
0	0.113636363636364	0.198863636363636	0.295454545454545	0.369318181818182	0.494318181818182	0.721590909090909	0.863636363636363	1	0.545454545454545	4
0	0.0197368421052582	0.118421052631578	0.315789473684212	0.368421052631581	0.480263157894736	0.67763157894737	0.842105263157894	1	0.539473684210528	4
0	0.12230215827338	0.194244604316547	0.395683453237411	0.47482014388489	0.546762589928057	0.705035971223019	0.827338129496403	1	0.611510791366905	2
0	0.1505376344086	0.301075268817202	0.36559139784946	0.505376344086021	0.580645161290321	0.580645161290321	0.741935483870967	1	0.623655913978493	2
0	0.16260162601626	0.260162601626016	0.260162601626016	0.357723577235772	0.51219512195122	0.601626016260162	0.804878048780488	1	0.585365853658536	5
0	0.125786163522012	0.220125786163523	0.314465408805033	0.39622641509434	0.547169811320755	0.69811320754717	0.855345911949685	1	0.547169811320755	5
0	0.0428571428571444	0.135714285714287	0.357142857142859	0.450000000000001	0.507142857142858	0.671428571428573	0.850000000000001	1	0.535714285714286	4
0	0.135135135135135	0.135135135135135	0.141891891891891	0.229729729729731	0.378378378378378	0.682432432432432	0.85135135135135	1	0.432432432432432	1
0	0.0340909090909091	0.0795454545454545	0.295454545454545	0.369318181818181	0.454545454545455	0.727272727272727	0.863636363636364	1	0.505681818181818	4
0	0.170940170940171	0.299145299145298	0.401709401709401	0.427350427350428	0.547008547008548	0.581196581196582	0.794871794871795	1	0.623931623931624	5
0	0.11764705882353	0.182352941176471	0.411764705882355	0.458823529411767	0.494117647058824	0.794117647058825	0.858823529411765	1	0.51764705882353	4
0	0.00578034682080926	0.0867052023121388	0.294797687861272	0.346820809248555	0.456647398843931	0.838150289017341	0.890173410404625	1	0.508670520231214	4
0	0.126582278481013	0.189873417721519	0.189873417721519	0.265822784810127	0.360759493670886	0.70253164556962	0.860759493670886	1	0.417721518987342	1
0	0.156249999999997	0.273437500000001	0.1875	0.242187499999997	0.390624999999998	0.617187499999997	0.8125	1	0.460937500000001	1
0	0.0857142857142863	0.171428571428573	0.228571428571428	0.302857142857142	0.439999999999999	0.720000000000001	0.862857142857143	1	0.439999999999999	3
0	0.112994350282486	0.19774011299435	0.282485875706215	0.344632768361582	0.474576271186441	0.757062146892655	0.898305084745763	1	0.480225988700565	3
0	0.0638297872340418	0.0638297872340418	0.0709219858156013	0.163120567375884	0.30496453900709	0.773049645390071	0.865248226950354	1	0.368794326241135	1
0	0.102272727272726	0.176136363636362	0.306818181818178	0.357954545454544	0.437499999999999	0.744318181818182	0.886363636363634	1	0.48863636363636	3
0	0.163265306122449	0.306122448979595	0.510204081632652	0.622448979591837	0.744897959183679	0.744897959183679	0.795918367346943	1	0.795918367346943	2
0	0.13740458015267	0.251908396946565	0.427480916030532	0.526717557251909	0.656488549618321	0.687022900763359	0.877862595419847	1	0.725190839694656	2
0	0.12987012987013	0.227272727272728	0.454545454545455	0.519480519480519	0.584415584415584	0.727272727272727	0.883116883116883	1	0.616883116883116	2
0	0.098901098901099	0.181318681318681	0.274725274725275	0.346153846153846	0.450549450549451	0.730769230769231	0.868131868131868	1	0.5	3
0	0.0397350993377498	0.0993377483443715	0.0993377483443715	0.178807947019868	0.337748344370861	0.67549668874172	0.841059602649007	1	0.337748344370861	1
0	0.134228187919463	0.187919463087248	0.187919463087248	0.234899328859061	0.315436241610739	0.765100671140939	0.838926174496644	1	0.375838926174497	1
0	0.119760479041916	0.209580838323353	0.383233532934132	0.461077844311377	0.568862275449102	0.706586826347306	0.856287425149701	1	0.622754491017964	2
0	0.156249999999997	0.273437500000001	0.367187499999997	0.429687499999997	0.507812500000003	0.6875	0.882812499999996	1	0.578124999999998	5
0	0.134228187919463	0.234899328859061	0.389261744966445	0.456375838926175	0.53020134228188	0.671140939597316	0.838926174496644	1	0.590604026845638	5
0	0.0994152046783645	0.187134502923976	0.2046783625731	0.280701754385965	0.421052631578947	0.7719298245614	0.877192982456141	1	0.444444444444442	3
0	0.0944881889763782	0.204724409448818	0.393700787401574	0.464566929133857	0.566929133858269	0.700787401574804	0.897637795275591	1	0.637795275590552	2
0	0.145985401459857	0.255474452554745	0.357664233576644	0.401459854014595	0.503649635036494	0.642335766423356	0.824817518248176	1	0.569343065693431	5
0	0.155038759689926	0.271317829457364	0.48062015503876	0.53488372093023	0.604651162790698	0.697674418604648	0.860465116279065	1	0.666666666666667	2
0	0.107142857142858	0.214285714285714	0.342857142857143	0.407142857142858	0.464285714285715	0.664285714285715	0.828571428571429	1	0.492857142857144	5
0	0.128205128205128	0.134615384615387	0.134615384615387	0.217948717948719	0.358974358974359	0.685897435897437	0.846153846153846	1	0.416666666666666	1
0	0.138888888888889	0.236111111111111	0.486111111111111	0.569444444444445	0.618055555555556	0.777777777777778	0.951388888888889	1	0.680555555555555	2
0	0.147058823529412	0.257352941176471	0.301470588235295	0.38970588235294	0.529411764705882	0.647058823529412	0.830882352941176	1	0.595588235294117	5
0	0.15625	0.273437500000001	0.28125	0.351562499999999	0.515624999999998	0.617187500000001	0.8125	1	0.585937500000001	5
0	0.0943396226415075	0.188679245283015	0.21383647798742	0.257861635220123	0.389937106918236	0.855345911949687	0.88679245283019	1	0.446540880503144	3
0	0.145985401459854	0.160583941605838	0.160583941605838	0.24817518248175	0.423357664233575	0.890510948905109	1	1	0.489051094890509	3
0	0.0802919708029173	0.189781021897809	0.343065693430655	0.416058394160583	0.481751824817517	0.708029197080292	0.861313868613138	1	0.547445255474451	4
0	0.119760479041916	0.209580838323354	0.281437125748504	0.335329341317366	0.479041916167666	0.868263473053893	0.92814371257485	1	0.479041916167666	3
0	0.114864864864867	0.216216216216216	0.270270270270269	0.337837837837841	0.479729729729732	0.810810810810808	0.885135135135133	1	0.540540540540539	4
0	0.126582278481013	0.189873417721518	0.341772151898733	0.411392405063291	0.525316455696201	0.689873417721519	0.848101265822785	1	0.582278481012659	5
0	0.038461538461541	0.038461538461541	0.0461538461538478	0.146153846153847	0.261538461538463	0.623076923076925	0.815384615384616	1	0.330769230769231	1
0	0.136054421768708	0.238095238095238	0.394557823129252	0.462585034013605	0.530612244897959	0.666666666666666	0.836734693877551	1	0.591836734693878	2
0	0.116959064327486	0.204678362573098	0.269005847953216	0.345029239766081	0.461988304093566	0.713450292397661	0.859649122807017	1	0.514619883040934	3
0	0.15625	0.15625	0.1640625	0.265625	0.3671875	0.625	0.8203125	1	0.4375	1
0	0.112903225806451	0.225806451612903	0.395161290322581	0.475806451612903	0.524193548387097	0.82258064516129	0.943548387096774	1	0.580645161290323	4
0	0.0955056179775281	0.179775280898877	0.286516853932584	0.359550561797753	0.49438202247191	0.758426966292135	0.870786516853932	1	0.544943820224719	4
0	0.135135135135135	0.236486486486487	0.472972972972974	0.527027027027029	0.621621621621622	0.722972972972974	0.837837837837838	1	0.682432432432432	2
0	0.0659340659340637	0.23076923076923	0.527472527472529	0.593406593406593	0.670329670329672	0.670329670329672	0.736263736263735	1	0.736263736263735	2
0	0.163934426229508	0.262295081967214	0.270491803278688	0.377049180327868	0.450819672131146	0.598360655737705	0.80327868852459	1	0.524590163934427	5
0	0.135135135135135	0.236486486486487	0.439189189189191	0.520270270270273	0.567567567567568	0.682432432432435	0.851351351351353	1	0.621621621621622	2
0	0.136054421768708	0.238095238095239	0.340136054421769	0.42857142857143	0.503401360544218	0.748299319727892	0.850340136054422	1	0.564625850340137	4
0	0.111801242236024	0.19254658385093	0.422360248447204	0.503105590062116	0.608695652173914	0.751552795031061	0.906832298136648	1	0.639751552795031	2
0	0.133928571428572	0.25	0.339285714285714	0.419642857142856	0.580357142857142	0.580357142857142	0.785714285714286	1	0.660714285714286	5
0	0.13986013986014	0.244755244755244	0.377622377622376	0.447552447552446	0.496503496503496	0.678321678321678	0.832167832167832	1	0.559440559440558	5
0	0.134228187919463	0.234899328859061	0.395973154362417	0.469798657718123	0.536912751677853	0.671140939597316	0.838926174496644	1	0.59731543624161	2
0	0.149253731343284	0.261194029850746	0.261194029850746	0.343283582089551	0.5	0.634328358208956	0.820895522388059	1	0.567164179104477	5
0	0.148148148148145	0.237037037037034	0.266666666666664	0.362962962962963	0.444444444444442	0.65185185185185	0.837037037037038	1	0.511111111111112	5
0	0.124999999999997	0.218750000000001	0.237500000000001	0.312499999999999	0.431249999999999	0.831249999999999	0.906249999999997	1	0.487500000000001	3
0	0.138686131386862	0.233576642335766	0.394160583941607	0.423357664233574	0.489051094890511	0.678832116788319	0.824817518248176	1	0.554744525547447	5
0	0.140740740740738	0.25185185185185	0.318518518518516	0.377777777777775	0.459259259259257	0.637037037037035	0.822222222222222	1	0.525925925925926	5
0	0.130718954248364	0.189542483660131	0.333333333333329	0.418300653594773	0.483660130718955	0.836601307189546	1	1	0.542483660130716	4
0	0.132231404958678	0.256198347107438	0.338842975206612	0.404958677685951	0.495867768595042	0.611570247933885	0.818181818181819	1	0.570247933884298	5
0	0.0833333333333347	0.172619047619047	0.202380952380951	0.279761904761908	0.398809523809524	0.779761904761905	0.857142857142857	1	0.416666666666668	3
0	0.125	0.162500000000001	0.275	0.343750000000001	0.418750000000001	0.731249999999999	0.85	1	0.475	3
0	0.13333333333333	0.233333333333334	0.299999999999999	0.353333333333332	0.433333333333329	0.866666666666664	0.919999999999997	1	0.493333333333331	3
0	0.163934426229507	0.286885245901639	0.311475409836064	0.393442622950819	0.483606557377049	0.663934426229508	0.868852459016393	1	0.540983606557376	5
0	0.125	0.1875	0.1875	0.2375	0.36875	0.70625	0.8625	1	0.38125	1
0	0.142857142857143	0.250000000000001	0.278571428571429	0.342857142857143	0.392857142857144	0.721428571428571	0.850000000000001	1	0.457142857142857	3
0	0.172413793103449	0.301724137931034	0.336206896551724	0.431034482758621	0.534482758620691	0.612068965517242	0.827586206896551	1	0.612068965517242	5
0	0.111999999999998	0.231999999999999	0.271999999999998	0.335999999999999	0.391999999999999	0.616	0.808	1	0.439999999999998	3
0	0.162601626016261	0.284552845528453	0.211382113821137	0.243902439024389	0.43089430894309	0.601626016260162	0.804878048780487	1	0.504065040650406	5
0	0.109826589595376	0.150289017341041	0.289017341040463	0.364161849710984	0.427745664739885	0.861271676300578	0.884393063583815	1	0.479768786127169	3
0	0.0940170940170951	0.222222222222221	0.222222222222221	0.333333333333331	0.435897435897433	0.615384615384616	0.829059829059829	1	0.487179487179487	5
0	0.0753424657534255	0.0753424657534255	0.082191780821921	0.171232876712331	0.335616438356167	0.671232876712328	0.835616438356164	1	0.397260273972608	1
0	0.13533834586466	0.248120300751879	0.323308270676689	0.390977443609023	0.466165413533833	0.631578947368422	0.819548872180451	1	0.533834586466163	5
0	0.150375939849624	0.248120300751879	0.255639097744359	0.353383458646614	0.533834586466163	0.639097744360902	0.819548872180451	1	0.533834586466163	5
0	0.111111111111111	0.215277777777779	0.437500000000001	0.486111111111113	0.541666666666668	0.694444444444444	0.861111111111111	1	0.604166666666667	2
0	0.107784431137723	0.179640718562873	0.245508982035928	0.311377245508983	0.443113772455089	0.78443113772455	0.8562874251497	1	0.497005988023951	3
0	0.136054421768708	0.238095238095239	0.380952380952382	0.448979591836734	0.51700680272109	0.666666666666667	0.836734693877551	1	0.578231292517007	5
0	0.105590062111801	0.198757763975155	0.304347826086956	0.385093167701863	0.453416149068323	0.695652173913044	0.850931677018634	1	0.509316770186335	5
0	0.149253731343284	0.261194029850746	0.335820895522388	0.395522388059701	0.522388059701492	0.634328358208956	0.820895522388059	1	0.58955223880597	5
0	0.109756097560976	0.170731707317073	0.414634146341463	0.49390243902439	0.640243902439025	0.737804878048781	0.853658536585366	1	0.640243902439025	2
0	0.118343195266272	0.207100591715976	0.284023668639053	0.36094674556213	0.455621301775148	0.775147928994083	0.917159763313609	1	0.508875739644971	4
0	0.136986301369863	0.239726027397261	0.308219178082193	0.376712328767124	0.458904109589042	0.82876712328767	1	1	0.520547945205479	4
0	0.0939226519337018	0.176795580110497	0.292817679558011	0.3646408839779	0.486187845303867	0.729281767955801	0.867403314917128	1	0.524861878453039	4
0	0.1	0.158333333333331	0.266666666666664	0.324999999999998	0.391666666666665	0.725	0.825	1	0.466666666666665	3
0	0.139860139860137	0.244755244755243	0.251748251748249	0.328671328671327	0.461538461538461	0.783216783216782	0.867132867132866	1	0.524475524475523	3
0	0.173913043478261	0.304347826086958	0.347826086956522	0.426086956521739	0.513043478260869	0.582608695652174	0.800000000000001	1	0.591304347826088	5
0	0.119047619047619	0.208333333333333	0.392857142857143	0.43452380952381	0.482142857142857	0.916666666666667	0.952380952380952	1	0.535714285714285	4
0	0.16260162601626	0.276422764227644	0.276422764227644	0.382113821138212	0.455284552845528	0.60162601626016	0.804878048780488	1	0.528455284552844	5
0	0.28169014084507	0.28169014084507	0.295774647887324	0.47887323943662	0.816901408450704	0.802816901408451	0.816901408450704	1	0.816901408450704	2
0	0.0866666666666674	0.140000000000001	0.220000000000001	0.306666666666667	0.36	0.76	0.859999999999999	1	0.420000000000001	3
0	0.152671755725191	0.229007633587785	0.343511450381679	0.427480916030533	0.49618320610687	0.732824427480915	0.923664122137405	1	0.564885496183205	4
0	0.00787401574803063	0.118110236220472	0.401574803149606	0.503937007874014	0.614173228346455	0.614173228346455	0.811023622047244	1	0.68503937007874	2
0	0.122448979591838	0.122448979591838	0.129251700680273	0.217687074829932	0.34013605442177	0.666666666666665	0.836734693877551	1	0.401360544217688	1
0	0.153846153846154	0.288461538461538	0.288461538461538	0.384615384615385	0.451923076923076	0.624999999999999	0.85576923076923	1	0.538461538461538	5
0	0.0774647887323944	0.183098591549295	0.119718309859155	0.154929577464788	0.288732394366197	0.654929577464789	0.830985915492958	1	0.352112676056338	1
0	0.143884892086331	0.25179856115108	0.431654676258992	0.525179856115107	0.633093525179856	0.683453237410072	0.863309352517985	1	0.697841726618704	2
0	0.13333333333333	0.233333333333334	0.426666666666666	0.486666666666662	0.553333333333333	0.673333333333332	0.84	1	0.61333333333333	2
0	0.169491525423729	0.220338983050849	0.220338983050849	0.296610169491526	0.44915254237288	0.584745762711862	0.796610169491526	1	0.52542372881356	5
0	0.133333333333333	0.258333333333334	0.291666666666667	0.358333333333333	0.45	0.591666666666667	0.8	1	0.525	5
0	0.136986301369863	0.23972602739726	0.253424657534246	0.342465753424658	0.397260273972603	0.684931506849316	0.842465753424658	1	0.458904109589041	3
0	0.111801242236026	0.204968944099381	0.29192546583851	0.372670807453416	0.440993788819877	0.708074534161493	0.863354037267082	1	0.496894409937889	3
0	0.142857142857143	0.249999999999998	0.457142857142857	0.521428571428571	0.585714285714284	0.692857142857142	0.87142857142857	1	0.649999999999998	2
0	0.148148148148148	0.25925925925926	0.370370370370371	0.466666666666666	0.555555555555555	0.703703703703703	0.88888888888889	1	0.622222222222223	2
0	0.111111111111111	0.161111111111113	0.316666666666668	0.366666666666667	0.488888888888888	0.872222222222219	0.922222222222221	1	0.516666666666667	4
0	0.134228187919463	0.234899328859061	0.355704697986577	0.416107382550337	0.476510067114095	0.671140939597316	0.838926174496644	1	0.536912751677853	5
0	0.1015625	0.1015625	0.109374999999996	0.210937499999995	0.351562500000002	0.859375000000001	0.968750000000003	1	0.421874999999998	1
0	0.106249999999999	0.2	0.30625	0.387499999999999	0.487499999999999	0.69375	0.85	1	0.54375	5
0	0.104712041884817	0.183246073298429	0.366492146596858	0.413612565445026	0.481675392670157	0.874345549738221	0.895287958115184	1	0.528795811518325	4
0	0.133333333333335	0.244444444444443	0.266666666666666	0.362962962962962	0.48148148148148	0.637037037037038	0.822222222222222	1	0.548148148148149	5
0	0.146153846153846	0.261538461538462	0.3	0.361538461538461	0.423076923076923	0.623076923076923	0.815384615384615	1	0.469230769230769	5
0	0.129496402877698	0.151079136690648	0.151079136690648	0.237410071942447	0.39568345323741	0.64748201438849	0.827338129496403	1	0.453237410071942	1
0	0.15625	0.2421875	0.28125	0.3515625	0.500000000000001	0.6171875	0.8125	1	0.5703125	5
0	0.123456790123457	0.185185185185185	0.401234567901235	0.481481481481481	0.555555555555556	0.697530864197531	0.851851851851852	1	0.611111111111111	2
0	0.0584795321637415	0.146198830409356	0.304093567251463	0.362573099415204	0.497076023391813	0.736842105263158	0.883040935672514	1	0.526315789473684	4
0	0.0697674418604653	0.139534883720931	0.313953488372093	0.377906976744186	0.488372093023257	0.80232558139535	0.860465116279069	1	0.534883720930231	4
0	0.168067226890756	0.27731092436975	0.27731092436975	0.361344537815127	0.470588235294117	0.588235294117648	0.798319327731093	1	0.54621848739496	5
0	0.238095238095238	0.333333333333333	0.333333333333333	0.452380952380952	0.547619047619048	0.619047619047619	0.916666666666665	1	0.654761904761903	2
0	0.120481927710843	0.210843373493976	0.41566265060241	0.481927710843374	0.548192771084337	0.716867469879518	0.867469879518073	1	0.602409638554217	2
0	0.00649350649350578	0.103896103896104	0.33116883116883	0.402597402597402	0.467532467532468	0.714285714285714	0.876623376623376	1	0.525974025974026	4
0	0.119718309859154	0.225352112676057	0.253521126760564	0.345070422535211	0.429577464788732	0.795774647887324	0.87323943661972	1	0.471830985915494	3
0	0.102409638554217	0.192771084337349	0.210843373493976	0.289156626506024	0.409638554216867	0.789156626506025	0.861445783132531	1	0.44578313253012	3
0	0.119760479041916	0.209580838323353	0.305389221556886	0.383233532934131	0.52694610778443	0.850299401197604	1	1	0.580838323353293	4
0	0.118343195266272	0.207100591715976	0.307692307692308	0.384615384615385	0.526627218934911	0.710059171597633	0.857988165680474	1	0.568047337278106	4
0	0.112903225806452	0.233870967741935	0.387096774193549	0.451612903225807	0.524193548387097	0.637096774193549	0.838709677419356	1	0.588709677419355	5
0	0.141843971631206	0.234042553191489	0.234042553191489	0.312056737588653	0.446808510638299	0.78014184397163	0.865248226950354	1	0.510638297872341	3
0	0.111111111111111	0.194444444444445	0.294444444444444	0.344444444444446	0.427777777777777	0.755555555555556	0.866666666666667	1	0.477777777777779	3
0	0.128205128205126	0.22435897435897	0.22435897435897	0.30128205128205	0.429487179487176	0.807692307692306	0.884615384615386	1	0.487179487179486	3
0	0.15454545454545	0.15454545454545	0.163636363636363	0.281818181818181	0.427272727272727	0.554545454545457	0.781818181818181	1	0.509090909090912	1
0	0.1123595505618	0.196629213483146	0.292134831460676	0.365168539325843	0.48314606741573	0.747191011235952	0.882022471910108	1	0.53370786516854	4
0	0.152671755725191	0.221374045801526	0.435114503816793	0.503816793893131	0.572519083969466	0.763358778625954	0.900763358778623	1	0.641221374045801	2
0	0.114503816793893	0.229007633587786	0.274809160305343	0.374045801526717	0.435114503816794	0.625954198473282	0.816793893129771	1	0.458015267175573	5
0	0.127659574468086	0.234042553191489	0.234042553191489	0.329787234042552	0.404255319148932	0.606382978723403	0.872340425531919	1	0.5	5
0	0.1	0.174999999999999	0.314999999999999	0.380000000000001	0.500000000000001	0.790000000000001	0.88	1	0.545000000000001	4
0	0.131578947368421	0.223684210526316	0.296052631578948	0.381578947368421	0.447368421052631	0.677631578947368	0.842105263157895	1	0.506578947368421	5
0	0.145985401459853	0.21897810218978	0.24817518248175	0.343065693430656	0.401459854014598	0.693430656934306	0.875912408759123	1	0.437956204379561	3
0	0.120481927710844	0.210843373493976	0.397590361445783	0.475903614457831	0.536144578313253	0.771084337349398	0.921686746987952	1	0.590361445783133	4
0	0.129496402877698	0.237410071942446	0.388489208633094	0.482014388489208	0.625899280575539	0.647482014388489	0.827338129496403	1	0.690647482014388	2
0	0.165289256198347	0.272727272727272	0.272727272727272	0.380165289256197	0.454545454545456	0.603305785123967	0.8099173553719	1	0.528925619834711	5
0	0.120805369127515	0.221476510067116	0.275167785234902	0.335570469798656	0.389261744966442	0.86577181208054	0.919463087248325	1	0.449664429530202	3
0	0.0560000000000009	0.175999999999998	0.175999999999998	0.263999999999999	0.391999999999999	0.783999999999999	0.864000000000001	1	0.463999999999999	3
0	0.104166666666667	0.131944444444445	0.131944444444445	0.201388888888889	0.368055555555556	0.743055555555555	0.881944444444444	1	0.368055555555556	1
0	0.136054421768708	0.238095238095238	0.360544217687074	0.408163265306121	0.544217687074829	0.666666666666666	0.836734693877551	1	0.605442176870748	5
0	0.0072992700729919	0.116788321167883	0.372262773722627	0.467153284671532	0.540145985401459	0.642335766423357	0.824817518248175	1	0.591240875912408	5
0	0.0994475138121535	0.18232044198895	0.30939226519337	0.359116022099447	0.49171270718232	0.878453038674032	0.917127071823204	1	0.541436464088397	4
0	0.118343195266272	0.195266272189349	0.266272189349112	0.34319526627219	0.396449704142011	0.710059171597634	0.857988165680473	1	0.449704142011835	3
0	0.0914634146341464	0.182926829268293	0.25609756097561	0.323170731707317	0.371951219512195	0.701219512195122	0.853658536585366	1	0.426829268292683	3
0	0.107526881720433	0.188172043010754	0.31720430107527	0.387096774193549	0.516129032258065	0.747311827956991	0.881720430107526	1	0.543010752688172	4
0	0.122699386503065	0.214723926380369	0.429447852760737	0.50920245398773	0.576687116564418	0.699386503067483	0.852760736196319	1	0.631901840490795	2
0	0.112994350282486	0.197740112994351	0.237288135593222	0.293785310734463	0.429378531073447	0.807909604519775	0.864406779661017	1	0.474576271186441	3
0	0.0729927007299287	0.124087591240875	0.364963503649637	0.445255474452554	0.518248175182483	0.708029197080292	0.861313868613141	1	0.576642335766425	4
0	0.124223602484472	0.124223602484472	0.130434782608695	0.211180124223601	0.360248447204968	0.695652173913041	0.850931677018633	1	0.360248447204968	1
0	0.120481927710844	0.210843373493977	0.313253012048193	0.391566265060241	0.52409638554217	0.849397590361446	1	1	0.578313253012049	4
0	0.106382978723404	0.186170212765957	0.361702127659574	0.430851063829787	0.494680851063829	0.813829787234042	0.872340425531915	1	0.542553191489362	4
0	0.142857142857143	0.214285714285716	0.214285714285716	0.285714285714286	0.414285714285716	0.657142857142857	0.835714285714285	1	0.478571428571429	3
0	0.124223602484472	0.124223602484472	0.130434782608695	0.211180124223604	0.360248447204971	0.695652173913044	0.850931677018633	1	0.360248447204971	1
0	0.112676056338029	0.190140845070424	0.23239436619718	0.323943661971834	0.450704225352115	0.739436619718309	0.830985915492957	1	0.514084507042252	3
0	0.11494252873563	0.201149425287358	0.344827586206895	0.419540229885056	0.545977011494253	0.873563218390808	1	1	0.59770114942529	4
0	0.136054421768705	0.238095238095236	0.462585034013603	0.551020408163266	0.666666666666667	0.687074829931974	0.857142857142858	1	0.727891156462584	2
0	0.145985401459854	0.255474452554744	0.284671532846715	0.364963503649635	0.496350364963504	0.664233576642336	0.846715328467154	1	0.562043795620438	5
0	0.133333333333331	0.233333333333335	0.293333333333332	0.353333333333334	0.433333333333332	0.866666666666669	0.920000000000003	1	0.493333333333334	3
0	0.133333333333333	0.146666666666667	0.146666666666667	0.233333333333333	0.34	0.673333333333333	0.84	1	0.4	1
0	0.100671140939597	0.100671140939597	0.10738255033557	0.194630872483221	0.335570469798657	0.751677852348993	0.865771812080537	1	0.395973154362416	1
0	0.114942528735632	0.201149425287356	0.356321839080459	0.408045977011494	0.522988505747126	0.747126436781609	0.890804597701149	1	0.574712643678161	4
0	0.281690140845074	0.281690140845074	0.29577464788732	0.478873239436613	0.816901408450695	0.802816901408449	0.816901408450695	1	0.816901408450695	2
0	0.115606936416185	0.202312138728324	0.289017341040464	0.364161849710984	0.479768786127169	0.716763005780347	0.861271676300578	1	0.531791907514451	4
0	0.0829268292682922	0.15609756097561	0.326829268292684	0.390243902439025	0.507317073170732	0.760975609756098	0.882926829268293	1	0.507317073170732	4
0	0.136054421768704	0.238095238095239	0.442176870748295	0.482993197278909	0.537414965986392	0.680272108843534	0.836734693877551	1	0.598639455782312	2
0	0.134228187919463	0.154362416107383	0.154362416107383	0.221476510067114	0.375838926174497	0.785234899328859	0.845637583892617	1	0.436241610738255	1
0	0.121951219512195	0.213414634146342	0.26219512195122	0.341463414634146	0.439024390243902	0.792682926829267	0.908536585365853	1	0.49390243902439	3
0	0.132231404958678	0.256198347107435	0.545454545454544	0.652892561983469	0.768595041322314	0.768595041322314	0.818181818181816	1	0.818181818181816	2
0	0.0333333333333327	0.0333333333333327	0.0444444444444439	0.188888888888888	0.255555555555555	0.455555555555555	0.733333333333333	1	0.355555555555555	1
0	0.142857142857144	0.26890756302521	0.277310924369749	0.361344537815127	0.504201680672269	0.588235294117648	0.798319327731094	1	0.579831932773111	5
0	0.145985401459854	0.255474452554742	0.445255474452554	0.481751824817517	0.56934306569343	0.678832116788321	0.846715328467154	1	0.635036496350363	2
0	0.125925925925925	0.192592592592591	0.192592592592591	0.251851851851851	0.31111111111111	0.748148148148149	0.896296296296298	1	0.377777777777776	1
0	0.121951219512195	0.189024390243903	0.402439024390243	0.457317073170732	0.603658536585367	0.701219512195123	0.853658536585366	1	0.658536585365854	2
0	0.143884892086331	0.25179856115108	0.345323741007194	0.424460431654677	0.503597122302159	0.697841726618707	0.87769784172662	1	0.568345323741008	5
0	0.0769230769230748	0.118881118881118	0.265734265734265	0.342657342657343	0.391608391608393	0.776223776223776	0.832167832167832	1	0.454545454545455	3
0	0.0774647887323953	0.183098591549298	0.41549295774648	0.507042253521128	0.563380281690142	0.654929577464789	0.830985915492958	1	0.626760563380282	2
0	0.137931034482759	0.179310344827585	0.179310344827585	0.234482758620688	0.289655172413792	0.662068965517242	0.83448275862069	1	0.331034482758621	1
0	0.0508474576271187	0.127118644067797	0.220338983050847	0.288135593220338	0.440677966101694	0.627118644067796	0.838983050847458	1	0.516949152542372	1
0	0.10989010989011	0.192307692307692	0.263736263736264	0.318681318681319	0.450549450549451	0.791208791208792	0.868131868131869	1	0.450549450549451	3
0	0.0808823529411773	0.176470588235294	0.367647058823528	0.426470588235292	0.51470588235294	0.639705882352942	0.823529411764706	1	0.580882352941177	5
0	0.134228187919463	0.23489932885906	0.348993288590604	0.422818791946308	0.496644295302014	0.671140939597316	0.838926174496644	1	0.557046979865771	5
0	0.0769230769230769	0.146153846153847	0.146153846153847	0.230769230769231	0.307692307692308	0.623076923076922	0.815384615384615	1	0.376923076923078	1
0	0.128205128205128	0.224358974358975	0.423076923076923	0.461538461538462	0.576923076923077	0.685897435897435	0.846153846153846	1	0.634615384615385	2
0	0.0731707317073162	0.13821138211382	0.373983739837399	0.479674796747967	0.674796747967479	0.796747967479674	0.861788617886178	1	0.674796747967479	2
0	0.150375939849621	0.263157894736843	0.293233082706765	0.368421052631575	0.436090225563908	0.639097744360902	0.819548872180451	1	0.503759398496242	5
0	0.116279069767442	0.203488372093024	0.406976744186045	0.465116279069767	0.563953488372092	0.726744186046511	0.866279069767441	1	0.616279069767441	2
0	0.123076923076923	0.238461538461539	0.323076923076923	0.423076923076924	0.492307692307692	0.653846153846155	0.846153846153846	1	0.561538461538462	5
0	0.146551724137933	0.267241379310349	0.57758620689655	0.629310344827587	0.732758620689651	0.732758620689651	0.896551724137928	1	0.77586206896552	2
0	0.158730158730159	0.277777777777776	0.436507936507935	0.515873015873016	0.634920634920636	0.682539682539682	0.88095238095238	1	0.706349206349207	2
0	0.178571428571433	0.214285714285714	0.214285714285714	0.276785714285711	0.366071428571432	0.607142857142861	0.812500000000001	1	0.437500000000003	1
0	0.104651162790701	0.180232558139538	0.226744186046514	0.284883720930234	0.424418604651164	0.790697674418603	0.883720930232556	1	0.459302325581397	3
0	0.106249999999999	0.2	0.30625	0.387500000000001	0.48125	0.69375	0.85	1	0.537500000000001	5
0	0.138888888888889	0.17361111111111	0.17361111111111	0.229166666666666	0.284722222222221	0.65972222222222	0.833333333333333	1	0.347222222222221	1
0	0.124087591240878	0.233576642335766	0.437956204379564	0.496350364963506	0.562043795620436	0.656934306569346	0.839416058394159	1	0.627737226277372	2
0	0.16260162601626	0.16260162601626	0.170731707317074	0.276422764227643	0.382113821138211	0.666666666666667	0.829268292682928	1	0.455284552845529	1
0	0.137614678899084	0.192660550458719	0.440366972477065	0.559633027522939	0.623853211009175	0.816513761467894	0.944954128440369	1	0.706422018348628	2
0	0.115151515151516	0.206060606060605	0.399999999999999	0.448484848484847	0.593939393939393	0.836363636363636	0.890909090909087	1	0.593939393939393	4
0	0.121951219512195	0.20731707317073	0.20731707317073	0.274390243902438	0.420731707317072	0.774390243902437	0.902439024390244	1	0.420731707317072	3
0	0.169491525423732	0.296610169491526	0.330508474576268	0.440677966101698	0.644067796610172	0.644067796610172	0.796610169491526	1	0.703389830508474	2
0	0.0888888888888891	0.199999999999998	0.244444444444444	0.318518518518517	0.377777777777776	0.748148148148149	0.837037037037038	1	0.444444444444446	3
0	0.123456790123454	0.216049382716045	0.432098765432095	0.462962962962959	0.493827160493822	0.833333333333332	0.962962962962962	1	0.518518518518516	4
0	0.148148148148149	0.229629629629628	0.392592592592593	0.474074074074072	0.548148148148148	0.696296296296296	0.881481481481481	1	0.614814814814814	2
0	0.122699386503067	0.214723926380369	0.226993865030674	0.288343558282209	0.368098159509202	0.74846625766871	0.852760736196319	1	0.423312883435582	3
0	0.129870129870127	0.188311688311688	0.214285714285717	0.298701298701301	0.454545454545457	0.844155844155844	0.941558441558439	1	0.512987012987012	3
0	0.147058823529412	0.147058823529412	0.154411764705882	0.25	0.389705882352942	0.735294117647059	0.823529411764706	1	0.455882352941177	1
0	0.140845070422535	0.23943661971831	0.23943661971831	0.323943661971831	0.450704225352113	0.767605633802818	0.866197183098591	1	0.514084507042254	3
0	0.12658227848101	0.177215189873416	0.354430379746837	0.398734177215189	0.449367088607595	0.905063291139242	0.949367088607595	1	0.506329113924053	4
0	0.157480314960634	0.220472440944886	0.503937007874017	0.566929133858269	0.622047244094494	0.700787401574808	0.897637795275591	1	0.653543307086617	2
0	0.0925925925925927	0.0925925925925927	0.101851851851852	0.222222222222222	0.435185185185185	0.546296296296296	0.777777777777778	1	0.518518518518518	1
0	0.0416666666666673	0.130952380952382	0.172619047619047	0.250000000000001	0.392857142857144	0.779761904761905	0.863095238095237	1	0.434523809523809	1
0	0.142857142857142	0.261904761904759	0.285714285714284	0.349206349206348	0.412698412698411	0.611111111111113	0.809523809523809	1	0.45238095238095	5
0	0.138888888888889	0.243055555555556	0.256944444444445	0.326388888888889	0.472222222222222	0.659722222222222	0.833333333333334	1	0.534722222222222	5
0	0.222222222222222	0.277777777777781	0.277777777777781	0.411111111111114	0.67777777777778	0.67777777777778	0.733333333333334	1	0.733333333333334	2
0	0.134228187919463	0.234899328859061	0.315436241610738	0.395973154362416	0.456375838926175	0.671140939597316	0.838926174496644	1	0.516778523489933	5
0	0.155038759689923	0.271317829457365	0.356589147286824	0.457364341085273	0.573643410852715	0.627906976744189	0.821705426356592	1	0.64341085271318	2
0	0.0526315789473693	0.165413533834587	0.330827067669173	0.42857142857143	0.503759398496242	0.676691729323309	0.849624060150376	1	0.541353383458647	4
0	0.145985401459854	0.145985401459854	0.153284671532847	0.248175182481752	0.423357664233577	0.817518248175182	1	1	0.423357664233577	3
0	0.145985401459854	0.255474452554746	0.481751824817517	0.554744525547446	0.671532846715329	0.715328467153284	0.897810218978104	1	0.737226277372263	2
0	0.0838323353293402	0.173652694610778	0.22754491017964	0.305389221556888	0.449101796407187	0.892215568862277	0.922155688622755	1	0.449101796407187	3
0	0.148148148148149	0.259259259259257	0.281481481481481	0.377777777777776	0.511111111111112	0.637037037037037	0.822222222222222	1	0.577777777777778	5
0	0.109195402298851	0.195402298850576	0.218390804597702	0.2816091954023	0.419540229885059	0.758620689655171	0.873563218390804	1	0.419540229885059	3
0	0.115606936416185	0.202312138728323	0.404624277456647	0.479768786127168	0.543352601156069	0.716763005780347	0.861271676300578	1	0.595375722543353	2
0	0.100719424460432	0.208633093525179	0.251798561151079	0.323741007194244	0.374100719424461	0.755395683453237	0.848920863309352	1	0.438848920863309	3
0	0.0943396226415075	0.160377358490565	0.198113207547169	0.320754716981131	0.386792452830188	0.537735849056604	0.773584905660377	1	0.471698113207546	1
0	0.127388535031844	0.222929936305733	0.305732484076433	0.356687898089172	0.426751592356689	0.87261146496815	0.923566878980889	1	0.484076433121017	3
0	0.133333333333334	0.233333333333333	0.346666666666666	0.413333333333332	0.479999999999999	0.673333333333334	0.84	1	0.54	5
0	0.140845070422535	0.246478873239438	0.380281690140847	0.443661971830987	0.492957746478876	0.67605633802817	0.830985915492961	1	0.528169014084509	5
0	0.0695652173913044	0.0695652173913044	0.0782608695652184	0.191304347826087	0.321739130434784	0.617391304347826	0.826086956521739	1	0.4	1
0	0.106508875739644	0.195266272189346	0.266272189349113	0.313609467455622	0.41420118343195	0.834319526627221	0.88165680473373	1	0.467455621301775	3
0	0.0526315789473685	0.157894736842105	0.203007518796993	0.300751879699248	0.398496240601504	0.691729323308271	0.879699248120301	1	0.466165413533835	3
0	0.136054421768708	0.238095238095236	0.476190476190476	0.530612244897959	0.585034013605442	0.734693877551019	0.843537414965985	1	0.64625850340136	2
0	0.147058823529412	0.257352941176471	0.257352941176471	0.352941176470588	0.463235294117648	0.727941176470589	0.911764705882353	1	0.529411764705882	3
0	0.123456790123459	0.216049382716049	0.432098765432098	0.487654320987656	0.635802469135803	0.753086419753087	0.876543209876541	1	0.691358024691355	2
0	0.149253731343284	0.261194029850746	0.305970149253732	0.380597014925373	0.507462686567165	0.67910447761194	0.865671641791045	1	0.574626865671642	5
0	0.11904761904762	0.206349206349205	0.380952380952382	0.460317460317459	0.531746031746034	0.746031746031746	0.904761904761905	1	0.603174603174604	4
0	0.119760479041919	0.209580838323354	0.215568862275452	0.287425149700599	0.401197604790421	0.808383233532934	0.874251497005988	1	0.45508982035928	3
0	0.104347826086956	0.234782608695653	0.278260869565217	0.347826086956521	0.556521739130434	0.652173913043479	0.869565217391304	1	0.634782608695651	5
0	0.131034482758618	0.227586206896551	0.227586206896551	0.317241379310344	0.399999999999999	0.813793103448275	0.910344827586204	1	0.462068965517239	3
0	0.128205128205128	0.198717948717949	0.384615384615385	0.435897435897436	0.525641025641024	0.749999999999999	0.910256410256409	1	0.557692307692306	4
0	0.153846153846151	0.199999999999999	0.199999999999999	0.26153846153846	0.407692307692308	0.62307692307692	0.815384615384615	1	0.476923076923073	1
0	0.130718954248366	0.228758169934641	0.457516339869283	0.516339869281047	0.581699346405228	0.738562091503268	0.875816993464052	1	0.62091503267974	2
0	0.155038759689923	0.26356589147287	0.317829457364344	0.403100775193799	0.511627906976746	0.62015503875969	0.813953488372093	1	0.550387596899226	5
0	0.136054421768707	0.238095238095238	0.333333333333333	0.374149659863945	0.435374149659864	0.795918367346939	0.850340136054422	1	0.496598639455782	4
0	0.131578947368421	0.230263157894735	0.249999999999999	0.309210526315788	0.427631578947369	0.848684210526317	0.914473684210527	1	0.453947368421053	3
0	0.142857142857146	0.142857142857146	0.15	0.242857142857142	0.414285714285714	0.650000000000003	0.828571428571428	1	0.414285714285714	1
0	0.143884892086331	0.251798561151077	0.474820143884892	0.53956834532374	0.597122302158272	0.683453237410071	0.863309352517988	1	0.661870503597124	2
0	0.105263157894738	0.19298245614035	0.380116959064327	0.456140350877194	0.555555555555556	0.713450292397659	0.859649122807018	1	0.608187134502924	2
0	0.143884892086331	0.25179856115108	0.482014388489208	0.546762589928058	0.618705035971224	0.719424460431655	0.856115107913669	1	0.676258992805756	2
0	0.142857142857143	0.261904761904762	0.285714285714286	0.365079365079365	0.436507936507937	0.611111111111111	0.809523809523809	1	0.507936507936507	5
0	0.100000000000002	0.16	0.350000000000001	0.390000000000001	0.510000000000001	0.780000000000002	0.904999999999999	1	0.555000000000003	4
0	0.133333333333334	0.233333333333333	0.26	0.346666666666667	0.406666666666667	0.800000000000001	0.92	1	0.466666666666667	3
0	0.134228187919463	0.181208053691276	0.228187919463089	0.308724832214767	0.469798657718123	0.798657718120807	0.865771812080537	1	0.53020134228188	3
0	0.134228187919463	0.134228187919463	0.140939597315437	0.228187919463087	0.389261744966443	0.691275167785235	0.859060402684564	1	0.389261744966443	1
0	0.112359550561798	0.174157303370787	0.382022471910112	0.438202247191011	0.48314606741573	0.775280898876405	0.910112359550562	1	0.53370786516854	4
0	0.149606299212599	0.204724409448819	0.204724409448819	0.244094488188977	0.299212598425197	0.724409448818898	0.921259842519685	1	0.346456692913386	1
0	0.14285714285714	0.250000000000002	0.471428571428571	0.499999999999997	0.564285714285714	0.650000000000003	0.828571428571428	1	0.628571428571431	2
0	0.125	0.218750000000001	0.293750000000001	0.356250000000001	0.437499999999999	0.85	0.906249999999999	1	0.475	3
0	0.152671755725191	0.183206106870229	0.183206106870229	0.267175572519084	0.450381679389312	0.625954198473282	0.816793893129771	1	0.51908396946565	1
0	0.144927536231884	0.253623188405797	0.27536231884058	0.355072463768116	0.485507246376811	0.644927536231884	0.826086956521739	1	0.550724637681159	5
0	0.119999999999999	0.160000000000001	0.293333333333332	0.366666666666666	0.526666666666667	0.686666666666668	0.853333333333337	1	0.526666666666667	4
0	0.133333333333334	0.186666666666667	0.253333333333334	0.34	0.5	0.673333333333334	0.84	1	0.559999999999999	5
0	0.0800000000000001	0.148571428571429	0.297142857142857	0.371428571428571	0.474285714285714	0.794285714285714	0.925714285714286	1	0.525714285714285	4
0	0.137931034482759	0.137931034482759	0.144827586206896	0.234482758620688	0.399999999999999	0.662068965517239	0.83448275862069	1	0.399999999999999	1
0	0.130718954248366	0.196078431372549	0.26797385620915	0.326797385620916	0.483660130718955	0.849673202614381	0.915032679738564	1	0.542483660130719	4
0	0.137931034482756	0.241379310344823	0.372413793103445	0.420689655172415	0.551724137931037	0.662068965517244	0.834482758620689	1	0.613793103448274	5
0	0.0789473684210526	0.177631578947369	0.250000000000001	0.335526315789474	0.388157894736843	0.697368421052633	0.861842105263159	1	0.447368421052632	3
0	0.10655737704918	0.229508196721312	0.254098360655737	0.336065573770492	0.409836065573769	0.672131147540983	0.877049180327869	1	0.483606557377049	3
0	0.136986301369866	0.239726027397261	0.417808219178082	0.486301369863012	0.616438356164383	0.801369863013699	0.904109589041094	1	0.650684931506848	2
0	0.153846153846154	0.253846153846154	0.346153846153846	0.446153846153847	0.538461538461539	0.707692307692308	0.861538461538462	1	0.607692307692308	5
0	0.172727272727273	0.309090909090909	0.581818181818181	0.663636363636364	0.881818181818183	0.872727272727273	0.881818181818183	1	0.881818181818183	2
0	0.253164556962026	0.316455696202532	0.316455696202532	0.468354430379747	0.582278481012658	0.582278481012658	0.784810126582279	1	0.696202531645568	2
0	0.108108108108108	0.189189189189189	0.324324324324324	0.394594594594595	0.524324324324324	0.843243243243243	0.935135135135135	1	0.572972972972973	4
0	0.130718954248366	0.22875816993464	0.261437908496732	0.346405228758169	0.418300653594772	0.745098039215685	0.888888888888888	1	0.477124183006536	3
0	0.149253731343284	0.208955223880597	0.432835820895523	0.492537313432837	0.552238805970149	0.634328358208956	0.820895522388059	1	0.619402985074627	2
0	0.119047619047619	0.208333333333335	0.374999999999999	0.452380952380954	0.523809523809525	0.708333333333333	0.857142857142859	1	0.577380952380953	4
0	0.117647058823527	0.182352941176469	0.282352941176471	0.335294117647056	0.41176470588235	0.823529411764704	0.870588235294116	1	0.44705882352941	3
0	0.148760330578511	0.239669421487603	0.305785123966942	0.396694214876033	0.462809917355372	0.702479338842975	0.859504132231406	1	0.504132231404958	5
0	0.113924050632912	0.20886075949367	0.234177215189873	0.303797468354431	0.39873417721519	0.816455696202532	0.89873417721519	1	0.455696202531646	3
0	0.127388535031847	0.21019108280255	0.445859872611467	0.509554140127389	0.566878980891722	0.700636942675161	0.847133757961783	1	0.624203821656053	2
0	0.142857142857143	0.255639097744361	0.263157894736842	0.338345864661654	0.406015037593985	0.834586466165413	0.93984962406015	1	0.473684210526315	3
0	0.138888888888886	0.138888888888886	0.145833333333333	0.23611111111111	0.402777777777776	0.65972222222222	0.833333333333333	1	0.465277777777779	1
0	0.137931034482759	0.137931034482759	0.144827586206896	0.234482758620688	0.393103448275862	0.675862068965516	0.848275862068964	1	0.455172413793102	1
0	0.10891089108911	0.207920792079207	0.207920792079207	0.316831683168317	0.554455445544555	0.683168316831683	0.851485148514855	1	0.554455445544555	5
0	0.0937500000000002	0.2109375	0.2421875	0.328125000000001	0.4453125	0.6171875	0.8125	1	0.515625000000001	5
0	0.00617283950617489	0.0987654320987653	0.314814814814815	0.388888888888889	0.456790123456791	0.734567901234568	0.851851851851852	1	0.512345679012346	4
0	0.0981595092024541	0.190184049079754	0.245398773006135	0.325153374233128	0.466257668711657	0.809815950920246	0.877300613496932	1	0.521472392638036	3
0	0.00714285714285637	0.0714285714285701	0.364285714285713	0.457142857142855	0.521428571428572	0.678571428571428	0.857142857142857	1	0.585714285714286	4
0	0.136054421768708	0.238095238095239	0.476190476190476	0.537414965986393	0.585034013605442	0.727891156462584	0.843537414965988	1	0.619047619047618	2
0	0.0992366412213733	0.206106870229007	0.33587786259542	0.419847328244274	0.587786259541984	0.679389312977099	0.870229007633587	1	0.625954198473283	2
0	0.0810810810810813	0.182432432432431	0.351351351351352	0.43918918918919	0.506756756756756	0.668918918918919	0.83783783783784	1	0.567567567567569	5
0	0.0814814814814824	0.192592592592593	0.333333333333334	0.407407407407409	0.466666666666666	0.659259259259259	0.844444444444445	1	0.503703703703704	5
0	0.206896551724138	0.333333333333333	0.333333333333333	0.425287356321839	0.528735632183908	0.528735632183908	0.735632183908046	1	0.632183908045977	5
0	0.15748031496063	0.275590551181102	0.275590551181102	0.338582677165354	0.417322834645669	0.614173228346457	0.811023622047244	1	0.488188976377953	5
0	0.124223602484472	0.217391304347827	0.372670807453416	0.453416149068325	0.521739130434783	0.695652173913044	0.850931677018633	1	0.577639751552797	5
0	0.127388535031847	0.222929936305733	0.407643312101911	0.490445859872612	0.547770700636943	0.713375796178344	0.847133757961784	1	0.605095541401274	2
0	0.151260504201682	0.151260504201682	0.159663865546219	0.26890756302521	0.436974789915966	0.907563025210083	0.949579831932771	1	0.504201680672268	3
0	0.00704225352112909	0.0985915492957761	0.359154929577465	0.429577464788734	0.5	0.690140845070423	0.830985915492958	1	0.535211267605633	4
0	0.134228187919461	0.234899328859057	0.261744966442953	0.322147651006708	0.416107382550334	0.865771812080539	0.9261744966443	1	0.476510067114095	3
0	0.145985401459854	0.255474452554742	0.467153284671533	0.525547445255475	0.576642335766421	0.671532846715329	0.854014598540146	1	0.620437956204379	2
0	0.132450331125828	0.211920529801325	0.211920529801325	0.298013245033114	0.364238410596028	0.854304635761589	0.887417218543047	1	0.423841059602649	3
0	0.0887096774193549	0.169354838709678	0.169354838709678	0.266129032258065	0.338709677419355	0.60483870967742	0.806451612903226	1	0.411290322580646	1
0	0.0825688073394486	0.211009174311926	0.211009174311926	0.321100917431192	0.422018348623852	0.623853211009173	0.853211009174312	1	0.504587155963302	3
0	0.134751773049646	0.24113475177305	0.276595744680851	0.361702127659575	0.48936170212766	0.680851063829788	0.858156028368794	1	0.524822695035461	5
0	0.165217391304349	0.226086956521737	0.226086956521737	0.339130434782605	0.521739130434778	0.608695652173914	0.826086956521735	1	0.556521739130434	5
0	0.136986301369863	0.239726027397258	0.267123287671231	0.328767123287672	0.397260273972602	0.869863013698629	0.924657534246574	1	0.458904109589039	3
0	0.170940170940171	0.213675213675213	0.213675213675213	0.282051282051282	0.452991452991453	0.726495726495727	0.905982905982907	1	0.487179487179487	3
0	0.148148148148148	0.259259259259259	0.385185185185186	0.481481481481481	0.533333333333334	0.644444444444444	0.829629629629629	1	0.592592592592593	2
0	0.137931034482759	0.241379310344828	0.482758620689655	0.531034482758621	0.579310344827586	0.696551724137931	0.848275862068966	1	0.641379310344828	2
0	0.136986301369863	0.23972602739726	0.376712328767123	0.424657534246575	0.561643835616438	0.664383561643836	0.835616438356165	1	0.623287671232877	2
0	0.118343195266273	0.195266272189349	0.301775147928993	0.366863905325444	0.431952662721894	0.751479289940829	0.899408284023669	1	0.485207100591716	3
0	0.0891089108910925	0.178217821782176	0.227722772277233	0.356435643564361	0.435643564356441	0.51485148514852	0.762376237623762	1	0.524752475247524	5
0	0.12987012987013	0.227272727272725	0.324675324675324	0.409090909090908	0.525974025974026	0.681818181818182	0.844155844155844	1	0.584415584415584	5
0	0.136986301369865	0.23972602739726	0.267123287671235	0.32876712328767	0.397260273972605	0.86986301369863	0.924657534246575	1	0.45890410958904	3
0	0.131578947368421	0.230263157894736	0.361842105263158	0.447368421052632	0.506578947368421	0.769736842105263	0.934210526315789	1	0.539473684210527	4
0	0.135999999999999	0.256	0.303999999999998	0.407999999999998	0.471999999999998	0.607999999999997	0.808	1	0.543999999999997	5
0	0.120481927710844	0.210843373493977	0.210843373493977	0.277108433734939	0.409638554216868	0.80722891566265	0.873493975903615	1	0.463855421686747	3
0	0.0898203592814372	0.179640718562874	0.215568862275449	0.275449101796407	0.383233532934132	0.796407185628742	0.8562874251497	1	0.407185628742515	3
0	0.115606936416185	0.202312138728324	0.208092485549133	0.283236994219654	0.404624277456648	0.716763005780347	0.861271676300578	1	0.445086705202312	3
0	0.0865384615384605	0.0865384615384605	0.096153846153844	0.221153846153847	0.288461538461536	0.528846153846155	0.769230769230769	1	0.365384615384613	1
0	0.114942528735632	0.183908045977012	0.247126436781609	0.298850574712644	0.431034482758621	0.839080459770115	0.885057471264368	1	0.459770114942528	3
0	0.114503816793894	0.229007633587785	0.236641221374044	0.328244274809159	0.389312977099235	0.877862595419847	0.938931297709924	1	0.458015267175574	3
0	0.135135135135135	0.236486486486487	0.310810810810812	0.39189189189189	0.452702702702703	0.66891891891892	0.837837837837838	1	0.513513513513513	5
0	0.172727272727273	0.281818181818182	0.281818181818182	0.4	0.472727272727272	0.690909090909091	0.918181818181818	1	0.554545454545454	5
0	0.129870129870132	0.227272727272727	0.279220779220779	0.363636363636362	0.441558441558443	0.837662337662336	0.922077922077919	1	0.499999999999997	3
0	0.131578947368421	0.203947368421052	0.203947368421052	0.230263157894736	0.322368421052631	0.677631578947369	0.842105263157894	1	0.38157894736842	1
0	0.124223602484472	0.198757763975156	0.329192546583851	0.372670807453416	0.434782608695652	0.84472049689441	0.925465838509317	1	0.490683229813665	4
0	0.080882352941174	0.191176470588234	0.301470588235293	0.367647058823528	0.477941176470587	0.720588235294116	0.823529411764703	1	0.544117647058822	4
0	0.141592920353982	0.185840707964601	0.185840707964601	0.27433628318584	0.389380530973451	0.5929203539823	0.814159292035398	1	0.469026548672566	1
0	0.163934426229508	0.180327868852458	0.180327868852458	0.278688524590163	0.352459016393441	0.811475409836064	1	1	0.426229508196722	3
0	0.155038759689923	0.193798449612402	0.193798449612402	0.255813953488371	0.348837209302325	0.689922480620155	0.883720930232557	1	0.418604651162793	1
0	0.083969465648855	0.198473282442748	0.297709923664122	0.396946564885496	0.458015267175572	0.625954198473282	0.816793893129771	1	0.526717557251908	5
0	0.041958041958042	0.0769230769230778	0.0769230769230778	0.146853146853148	0.314685314685314	0.692307692307692	0.867132867132868	1	0.314685314685314	1
0	0.16	0.16	0.167999999999999	0.271999999999998	0.335999999999999	0.648	0.824000000000002	1	0.384	1
0	0.111111111111111	0.215277777777779	0.381944444444445	0.472222222222222	0.527777777777778	0.840277777777777	0.944444444444444	1	0.59027777777778	4
0	0.129032258064516	0.129032258064516	0.135483870967742	0.219354838709676	0.335483870967743	0.683870967741936	0.84516129032258	1	0.374193548387096	1
0	0.0560747663551422	0.11214953271028	0.289719626168225	0.411214953271028	0.476635514018692	0.738317757009346	0.915887850467291	1	0.560747663551401	4
0	0.133333333333333	0.244444444444444	0.303703703703703	0.4	0.45925925925926	0.696296296296297	0.881481481481481	1	0.496296296296296	5
0	0.115606936416185	0.202312138728323	0.213872832369942	0.265895953757226	0.404624277456646	0.815028901734104	0.861271676300578	1	0.445086705202312	3
0	0.00558659217877034	0.050279329608938	0.28491620111732	0.346368715083798	0.46368715083799	0.821229050279329	0.905027932960894	1	0.497206703910615	4
0	0.128205128205128	0.185897435897436	0.224358974358975	0.307692307692308	0.461538461538462	0.756410256410257	0.916666666666667	1	0.519230769230769	3
0	0.116959064327486	0.2046783625731	0.257309941520468	0.309941520467836	0.450292397660819	0.807017543859649	0.859649122807017	1	0.450292397660819	3
0	0.111731843575417	0.19553072625698	0.279329608938547	0.335195530726256	0.446927374301673	0.83240223463687	0.888268156424583	1	0.474860335195532	3
0	0.132352941176475	0.235294117647059	0.426470588235292	0.49264705882353	0.573529411764708	0.639705882352945	0.823529411764706	1	0.639705882352945	2
0	0.105882352941176	0.194117647058824	0.241176470588236	0.300000000000001	0.4	0.78235294117647	0.864705882352941	1	0.452941176470588	3
0	0.13422818791946	0.234899328859055	0.255033557046976	0.335570469798656	0.489932885906037	0.818791946308724	0.899328859060399	1	0.550335570469798	4
0	0.0479452054794498	0.150684931506851	0.349315068493152	0.438356164383562	0.458904109589043	0.828767123287669	1	1	0.520547945205477	4
0	0.110344827586207	0.213793103448277	0.351724137931036	0.420689655172413	0.489655172413794	0.662068965517242	0.83448275862069	1	0.551724137931035	5
0	0.0925925925925934	0.185185185185184	0.253086419753086	0.333333333333332	0.43827160493827	0.777777777777777	0.925925925925926	1	0.493827160493828	3
0	0.105590062111801	0.198757763975155	0.211180124223603	0.29192546583851	0.440993788819876	0.795031055900621	0.900621118012422	1	0.484472049689441	3
0	0.10734463276836	0.175141242937851	0.389830508474576	0.446327683615818	0.497175141242938	0.847457627118643	0.943502824858756	1	0.548022598870056	4
0	0.143884892086331	0.251798561151081	0.172661870503598	0.20863309352518	0.258992805755396	0.683453237410074	0.827338129496406	1	0.323741007194245	1
0	0.157480314960633	0.275590551181102	0.362204724409449	0.40944881889764	0.480314960629918	0.629921259842517	0.826771653543306	1	0.551181102362204	5
0	0.131147540983607	0.254098360655739	0.30327868852459	0.39344262295082	0.467213114754098	0.655737704918034	0.860655737704919	1	0.516393442622953	5
0	0.11764705882353	0.205882352941177	0.211764705882353	0.270588235294117	0.411764705882352	0.805882352941177	0.858823529411765	1	0.411764705882352	3
0	0.0873015873015882	0.11904761904762	0.11904761904762	0.206349206349206	0.325396825396825	0.650793650793651	0.849206349206348	1	0.396825396825397	1
0	0.149253731343287	0.149253731343287	0.156716417910453	0.253731343283587	0.410447761194033	0.813432835820893	1	1	0.477611940298507	3
0	0.117283950617285	0.209876543209878	0.240740740740742	0.290123456790125	0.438271604938273	0.771604938271605	0.925925925925926	1	0.493827160493828	3
0	0.136	0.256	0.312	0.376	0.432	0.608000000000001	0.808000000000001	1	0.504	5
0	0.132867132867134	0.237762237762237	0.342657342657343	0.405594405594405	0.461538461538461	0.692307692307695	0.867132867132869	1	0.503496503496505	5
0	0.12962962962963	0.268518518518518	0.324074074074074	0.407407407407408	0.490740740740741	0.555555555555557	0.787037037037038	1	0.574074074074075	5
0	0.106382978723404	0.186170212765958	0.340425531914894	0.409574468085106	0.452127659574467	0.739361702127658	0.872340425531915	1	0.499999999999999	4
0	0.16	0.279999999999999	0.295999999999999	0.383999999999999	0.527999999999999	0.607999999999999	0.808	1	0.575999999999999	5
0	0.134228187919463	0.221476510067114	0.395973154362417	0.483221476510067	0.590604026845638	0.711409395973156	0.879194630872485	1	0.651006711409396	2
0	0.170940170940171	0.170940170940171	0.179487179487179	0.290598290598289	0.495726495726494	0.726495726495726	0.940170940170939	1	0.495726495726494	3
0	0.108108108108108	0.189189189189189	0.378378378378379	0.448648648648648	0.578378378378378	0.859459459459459	0.967567567567568	1	0.578378378378378	4
0	0.118343195266272	0.207100591715976	0.23076923076923	0.301775147928994	0.44378698224852	0.781065088757397	0.857988165680473	1	0.467455621301775	3
0	0.140845070422535	0.218309859154928	0.443661971830984	0.499999999999998	0.556338028169013	0.654929577464789	0.830985915492958	1	0.619718309859156	2
0	0.127388535031847	0.159235668789809	0.178343949044586	0.261146496815287	0.369426751592357	0.713375796178344	0.872611464968153	1	0.426751592356688	1
0	0.106666666666667	0.106666666666667	0.113333333333335	0.200000000000001	0.360000000000001	0.673333333333332	0.84	1	0.360000000000001	1
0	0.147058823529412	0.176470588235294	0.176470588235294	0.242647058823525	0.308823529411763	0.705882352941177	0.889705882352937	1	0.375000000000001	1
0	0.0966183574879229	0.169082125603863	0.333333333333333	0.386473429951691	0.502415458937199	0.78743961352657	0.884057971014493	1	0.545893719806764	4
0	0.133333333333334	0.213333333333332	0.213333333333332	0.3	0.46	0.773333333333333	0.940000000000001	1	0.46	3
0	0.0759493670886077	0.164556962025315	0.183544303797468	0.265822784810126	0.405063291139238	0.708860759493669	0.848101265822785	1	0.455696202531643	1
0	0.125874125874127	0.230769230769233	0.286713286713289	0.377622377622379	0.447552447552447	0.825174825174826	1	1	0.510489510489509	4
0	0.110429447852762	0.202453987730061	0.263803680981596	0.343558282208589	0.404907975460124	0.736196319018404	0.889570552147238	1	0.460122699386503	3
0	0.0970149253731337	0.208955223880594	0.365671641791045	0.462686567164178	0.529850746268655	0.634328358208956	0.820895522388059	1	0.582089552238805	5
0	0.148148148148149	0.192592592592591	0.192592592592591	0.288888888888887	0.466666666666665	0.637037037037037	0.822222222222222	1	0.466666666666665	1
0	0.0921052631578962	0.19078947368421	0.263157894736842	0.322368421052631	0.467105263157895	0.677631578947369	0.842105263157895	1	0.473684210526316	3
0	0.153846153846154	0.253846153846153	0.538461538461538	0.615384615384616	0.669230769230768	0.707692307692309	0.900000000000001	1	0.73846153846154	2
0	0.142857142857146	0.142857142857146	0.149999999999999	0.242857142857147	0.414285714285718	0.75	0.928571428571424	1	0.414285714285718	1
0	0.141843971631206	0.234042553191489	0.234042553191489	0.312056737588653	0.446808510638297	0.787234042553191	0.858156028368794	1	0.510638297872341	3
0	0.161290322580646	0.209677419354838	0.209677419354838	0.274193548387096	0.451612903225808	0.620967741935485	0.822580645161291	1	0.524193548387098	5
0	0.0797101449275372	0.188405797101448	0.289855072463769	0.355072463768116	0.46376811594203	0.731884057971015	0.826086956521739	1	0.528985507246377	4
0	0.197802197802196	0.252747252747255	0.252747252747255	0.351648351648353	0.439560439560441	0.681318681318681	0.857142857142858	1	0.538461538461539	5
0	0.198019801980198	0.287128712871286	0.287128712871286	0.366336633663366	0.465346534653467	0.613861386138612	0.861386138613859	1	0.554455445544555	5
0	0.111111111111113	0.166666666666669	0.492063492063493	0.547619047619046	0.634920634920634	0.753968253968254	0.936507936507937	1	0.69047619047619	2
0	0.107142857142857	0.178571428571428	0.307142857142857	0.4	0.457142857142857	0.742857142857143	0.871428571428571	1	0.521428571428571	4
0	0.145985401459854	0.255474452554746	0.299270072992703	0.394160583941608	0.518248175182483	0.64963503649635	0.83211678832117	1	0.583941605839417	5
0	0.141843971631206	0.24113475177305	0.290780141843971	0.347517730496453	0.404255319148936	0.872340425531915	0.964539007092199	1	0.446808510638297	3
0	0.137931034482759	0.137931034482759	0.144827586206897	0.23448275862069	0.4	0.668965517241379	0.841379310344827	1	0.462068965517241	1
0	0.0971428571428572	0.182857142857143	0.217142857142857	0.274285714285714	0.411428571428572	0.794285714285714	0.862857142857143	1	0.411428571428572	3
0	0.142857142857144	0.255639097744361	0.323308270676693	0.421052631578948	0.481203007518797	0.684210526315789	0.864661654135338	1	0.548872180451129	5
0	0.116279069767442	0.203488372093024	0.27906976744186	0.354651162790697	0.47674418604651	0.715116279069765	0.86046511627907	1	0.529069767441861	4
0	0.142857142857143	0.250000000000001	0.457142857142857	0.549999999999999	0.664285714285713	0.692857142857142	0.87142857142857	1	0.728571428571427	2
0	0.138888888888887	0.243055555555552	0.472222222222222	0.527777777777778	0.583333333333334	0.659722222222224	0.833333333333338	1	0.645833333333337	2
0	0.00649350649350614	0.103896103896104	0.331168831168831	0.415584415584415	0.538961038961039	0.75974025974026	0.902597402597403	1	0.597402597402597	4
0	0.062015503875969	0.178294573643412	0.248062015503876	0.348837209302325	0.496124031007752	0.635658914728684	0.813953488372093	1	0.565891472868217	5
0	0.120967741935485	0.201612903225807	0.209677419354839	0.314516129032259	0.427419354838711	0.758064516129032	0.82258064516129	1	0.5	3
0	0.124183006535949	0.124183006535949	0.130718954248364	0.215686274509801	0.372549019607841	0.68627450980392	0.84313725490196	1	0.372549019607841	1
0	0.0666666666666653	0.166666666666666	0.22	0.306666666666666	0.420000000000001	0.786666666666666	0.899999999999999	1	0.480000000000001	3
0	0.0479041916167665	0.137724550898203	0.293413173652694	0.37125748502994	0.502994011976048	0.832335329341317	0.886227544910179	1	0.55688622754491	4
0	0.116959064327485	0.2046783625731	0.274853801169591	0.350877192982456	0.491228070175438	0.713450292397662	0.859649122807018	1	0.543859649122806	4
0	0.130718954248366	0.222222222222221	0.372549019607843	0.437908496732027	0.562091503267973	0.679738562091504	0.843137254901961	1	0.62091503267974	2
0	0.0763358778625955	0.145038167938932	0.290076335877863	0.389312977099238	0.442748091603054	0.625954198473283	0.816793893129771	1	0.511450381679389	5
0	0.115606936416185	0.202312138728324	0.254335260115607	0.306358381502891	0.421965317919075	0.838150289017341	0.878612716763006	1	0.473988439306359	3
0	0.158730158730159	0.277777777777777	0.484126984126984	0.539682539682539	0.587301587301587	0.738095238095238	0.857142857142857	1	0.642857142857143	2
0	0.121951219512195	0.213414634146342	0.426829268292684	0.500000000000001	0.554878048780489	0.701219512195123	0.853658536585366	1	0.609756097560976	2
0	0.132450331125825	0.2317880794702	0.298013245033112	0.357615894039737	0.476821192052981	0.675496688741719	0.841059602649006	1	0.5364238410596	5
0	0.10062893081761	0.19496855345912	0.364779874213835	0.446540880503145	0.49685534591195	0.723270440251572	0.880503144654087	1	0.553459119496855	4
0	0.129310344827586	0.232758620689655	0.327586206896552	0.439655172413793	0.568965517241379	0.577586206896552	0.793103448275862	1	0.646551724137931	5
0	0.155038759689923	0.271317829457362	0.31782945736434	0.387596899224805	0.511627906976743	0.620155038759687	0.813953488372093	1	0.581395348837207	5
0	0.111940298507462	0.216417910447761	0.276119402985074	0.335820895522388	0.447761194029851	0.634328358208955	0.82089552238806	1	0.514925373134328	5
0	0.151515151515149	0.212121212121209	0.250000000000003	0.348484848484851	0.522727272727274	0.666666666666669	0.856060606060612	1	0.590909090909095	5
0	0.0693069306930661	0.217821782178211	0.227722772277225	0.346534653465348	0.405940594059401	0.821782178217815	0.930693069306925	1	0.48514851485148	3
0	0.0674846625766878	0.153374233128834	0.226993865030674	0.288343558282209	0.43558282208589	0.699386503067483	0.852760736196319	1	0.43558282208589	3
0	0.157480314960629	0.275590551181102	0.472440944881889	0.519685039370078	0.543307086614173	0.795275590551181	0.826771653543307	1	0.614173228346456	2
0	0.101449275362317	0.210144927536231	0.253623188405795	0.318840579710145	0.376811594202899	0.753623188405798	0.840579710144929	1	0.442028985507246	3
0	0.0476190476190477	0.101190476190476	0.196428571428571	0.273809523809524	0.416666666666667	0.803571428571429	0.857142857142857	1	0.470238095238095	3
0	0.069364161849711	0.144508670520231	0.30635838150289	0.381502890173409	0.45086705202312	0.849710982658958	0.907514450867052	1	0.502890173410403	4
0	0.13986013986014	0.237762237762238	0.454545454545455	0.531468531468531	0.643356643356643	0.685314685314685	0.86013986013986	1	0.706293706293706	2
0	0.136363636363638	0.250000000000002	0.333333333333333	0.431818181818184	0.507575757575758	0.734848484848484	0.871212121212122	1	0.575757575757576	4
0	0.170940170940171	0.290598290598291	0.290598290598291	0.393162393162394	0.478632478632479	0.623931623931624	0.837606837606838	1	0.555555555555555	5
0	0.151515151515152	0.265151515151515	0.348484848484849	0.393939393939394	0.446969696969697	0.628787878787879	0.818181818181819	1	0.515151515151515	5
0	0.111731843575419	0.195530726256984	0.391061452513967	0.463687150837989	0.519553072625698	0.726256983240224	0.865921787709497	1	0.569832402234637	4
0	0.124223602484472	0.192546583850931	0.341614906832298	0.422360248447205	0.571428571428572	0.863354037267081	0.925465838509317	1	0.627329192546584	4
0	0.136986301369863	0.239726027397261	0.239726027397261	0.315068493150684	0.47945205479452	0.746575342465754	0.842465753424657	1	0.541095890410961	3
0	0.138686131386862	0.24817518248175	0.313868613138686	0.372262773722628	0.481751824817515	0.642335766423356	0.824817518248176	1	0.547445255474452	5
0	0.122302158273384	0.230215827338129	0.338129496402881	0.395683453237407	0.503597122302159	0.661870503597125	0.841726618705035	1	0.539568345323741	5
0	0.147058823529409	0.257352941176467	0.477941176470587	0.558823529411765	0.669117647058822	0.713235294117648	0.897058823529416	1	0.73529411764706	2
0	0.155038759689923	0.271317829457365	0.286821705426358	0.387596899224807	0.542635658914729	0.689922480620156	0.883720930232559	1	0.612403100775195	5
0	0.138686131386861	0.248175182481752	0.277372262773723	0.357664233576642	0.496350364963504	0.64963503649635	0.832116788321169	1	0.562043795620438	5
0	0.0895522388059703	0.201492537313431	0.253731343283581	0.313432835820894	0.373134328358208	0.738805970149252	0.835820895522389	1	0.440298507462685	3
0	0.132450331125825	0.2317880794702	0.4635761589404	0.543046357615894	0.596026490066225	0.728476821192056	0.894039735099338	1	0.65562913907285	2
0	0.137931034482758	0.241379310344827	0.448275862068965	0.503448275862069	0.551724137931035	0.662068965517242	0.83448275862069	1	0.613793103448276	2
0	0.12578616352201	0.220125786163518	0.301886792452831	0.383647798742138	0.490566037735846	0.849056603773585	0.905660377358487	1	0.547169811320754	4
0	0.133333333333334	0.233333333333331	0.419999999999998	0.506666666666667	0.666666666666668	0.773333333333334	0.886666666666667	1	0.666666666666668	2
0	0.142857142857145	0.285714285714285	0.285714285714285	0.367346938775509	0.459183673469386	0.499999999999998	0.755102040816327	1	0.551020408163266	5
0	0.123188405797101	0.231884057971015	0.340579710144929	0.398550724637683	0.449275362318843	0.731884057971015	0.826086956521742	1	0.51449275362319	4
0	0.00671140939597539	0.107382550335571	0.342281879194632	0.409395973154362	0.469798657718123	0.832214765100669	1	1	0.530201342281877	4
0	0.163934426229508	0.286885245901637	0.385245901639342	0.442622950819671	0.573770491803278	0.598360655737705	0.80327868852459	1	0.647540983606556	2
0	0.135135135135139	0.236486486486488	0.445945945945946	0.513513513513518	0.574324324324325	0.790540540540542	0.939189189189193	1	0.614864864864867	2
0	0.0948905109489044	0.204379562043796	0.255474452554746	0.321167883211679	0.372262773722626	0.751824817518246	0.846715328467154	1	0.437956204379562	3
0	0.12676056338028	0.232394366197183	0.246478873239436	0.32394366197183	0.464788732394365	0.654929577464789	0.830985915492958	1	0.528169014084507	5
0	0.127819548872183	0.240601503759399	0.428571428571431	0.511278195488722	0.624060150375941	0.631578947368422	0.819548872180451	1	0.691729323308271	2
0	0.0705882352941177	0.152941176470588	0.341176470588235	0.4	0.464705882352941	0.782352941176471	0.929411764705883	1	0.505882352941176	4
0	0.0666666666666674	0.157575757575756	0.27878787878788	0.357575757575758	0.412121212121215	0.769696969696968	0.854545454545454	1	0.466666666666666	3
0	0.149253731343284	0.261194029850748	0.298507462686568	0.365671641791045	0.425373134328358	0.753731343283582	0.902985074626866	1	0.492537313432838	3
0	0.120481927710841	0.16265060240964	0.16265060240964	0.240963855421688	0.379518072289156	0.704819277108436	0.855421686746987	1	0.391566265060239	1
0	0.16	0.280000000000001	0.391999999999999	0.488	0.672000000000001	0.672000000000001	0.808	1	0.736000000000001	2
0	0.129496402877699	0.237410071942448	0.446043165467627	0.503597122302159	0.553956834532373	0.64748201438849	0.827338129496403	1	0.618705035971224	2
0	0.222222222222226	0.366666666666668	0.366666666666668	0.477777777777775	0.74444444444444	0.777777777777774	0.933333333333331	1	0.844444444444443	2
0	0.0535714285714306	0.119047619047619	0.351190476190477	0.416666666666668	0.464285714285716	0.857142857142857	0.934523809523809	1	0.517857142857144	4
0	0.28169014084507	0.28169014084507	0.295774647887322	0.478873239436622	0.816901408450706	0.802816901408448	0.816901408450706	1	0.816901408450706	2
0	0.0727272727272701	0.163636363636359	0.290909090909091	0.35151515151515	0.472727272727269	0.757575757575757	0.854545454545454	1	0.509090909090907	4
0	0.12987012987013	0.149350649350647	0.149350649350647	0.233766233766231	0.33116883116883	0.681818181818182	0.844155844155844	1	0.389610389610387	1
0	0.104166666666667	0.182291666666667	0.333333333333333	0.401041666666666	0.526041666666666	0.744791666666667	0.875	1	0.526041666666666	4
0	0.132075471698113	0.273584905660378	0.330188679245283	0.415094339622642	0.49056603773585	0.566037735849057	0.80188679245283	1	0.556603773584906	5
0	0.157480314960627	0.275590551181104	0.362204724409452	0.448818897637799	0.519685039370078	0.61417322834646	0.811023622047244	1	0.566929133858269	5
0	0.171428571428572	0.314285714285714	0.314285714285714	0.39047619047619	0.466666666666666	0.542857142857142	0.780952380952382	1	0.552380952380953	5
0	0.106870229007634	0.221374045801526	0.351145038167939	0.419847328244274	0.47328244274809	0.625954198473281	0.816793893129771	1	0.503816793893129	5
0	0.232558139534884	0.302325581395349	0.302325581395349	0.360465116279071	0.558139534883721	0.558139534883721	0.732558139534885	1	0.66279069767442	5
0	0.145985401459851	0.145985401459851	0.153284671532847	0.248175182481751	0.423357664233577	0.766423357664233	0.948905109489053	1	0.423357664233577	1
0	0.113636363636364	0.227272727272727	0.280303030303031	0.378787878787879	0.5	0.628787878787879	0.818181818181818	1	0.568181818181819	5
0	0.129032258064515	0.212903225806451	0.32258064516129	0.393548387096774	0.458064516129033	0.851612903225807	0.929032258064517	1	0.516129032258064	4
0	0.18018018018018	0.288288288288288	0.288288288288288	0.396396396396396	0.468468468468468	0.558558558558556	0.783783783783784	1	0.549549549549552	5
0	0.0931677018633573	0.186335403726709	0.341614906832301	0.403726708074535	0.52795031055901	0.807453416149071	0.869565217391305	1	0.583850931677019	4
0	0.127388535031847	0.222929936305731	0.242038216560508	0.292993630573247	0.343949044585986	0.687898089171972	0.847133757961783	1	0.401273885350317	1
0	0.138888888888889	0.243055555555556	0.305555555555556	0.381944444444445	0.493055555555556	0.666666666666666	0.840277777777778	1	0.555555555555555	5
0	0.102150537634409	0.182795698924731	0.327956989247312	0.397849462365591	0.446236559139786	0.768817204301075	0.870967741935484	1	0.494623655913978	4
0	0.131578947368421	0.230263157894737	0.355263157894737	0.421052631578947	0.526315789473684	0.677631578947368	0.842105263157895	1	0.585526315789474	5
0	0.082191780821921	0.287671232876711	0.178082191780821	0.246575342465757	0.356164383561647	0.356164383561647	0.671232876712328	1	0.479452054794523	1
0	0.140845070422533	0.246478873239439	0.429577464788734	0.521126760563381	0.577464788732395	0.654929577464791	0.830985915492957	1	0.640845070422539	2
0	0.138888888888892	0.243055555555556	0.347222222222227	0.402777777777782	0.465277777777779	0.881944444444448	0.937500000000004	1	0.527777777777781	4
0	0.135135135135135	0.236486486486487	0.337837837837839	0.405405405405405	0.466216216216215	0.689189189189191	0.837837837837838	1	0.527027027027029	5
0	0.128205128205131	0.224358974358976	0.30128205128205	0.384615384615383	0.442307692307693	0.685897435897439	0.846153846153846	1	0.500000000000003	5
0	0.161290322580645	0.250000000000001	0.250000000000001	0.314516129032259	0.395161290322583	0.60483870967742	0.806451612903226	1	0.435483870967744	3
0	0.176991150442478	0.300884955752213	0.300884955752213	0.345132743362832	0.451327433628319	0.654867256637169	0.831858407079646	1	0.530973451327434	5
0	0.243902439024391	0.243902439024391	0.25609756097561	0.414634146341463	0.707317073170731	0.695121951219512	0.707317073170731	1	0.707317073170731	2
0	0.0833333333333298	0.172619047619048	0.285714285714282	0.363095238095239	0.505952380952383	0.821428571428574	0.898809523809527	1	0.559523809523809	4
0	0.0999999999999993	0.215384615384619	0.253846153846157	0.323076923076922	0.384615384615384	0.761538461538464	0.861538461538463	1	0.453846153846155	3
0	0.140845070422535	0.21830985915493	0.295774647887325	0.387323943661972	0.478873239436619	0.683098591549294	0.830985915492958	1	0.542253521126759	5
0	0.0277777777777809	0.0833333333333364	0.347222222222227	0.41666666666667	0.513888888888894	0.770833333333337	0.937500000000004	1	0.57638888888889	4
0	0.116279069767442	0.203488372093024	0.308139534883722	0.383720930232558	0.523255813953488	0.732558139534884	0.877906976744185	1	0.575581395348837	4
0	0.10989010989011	0.192307692307692	0.302197802197802	0.362637362637363	0.472527472527472	0.785714285714286	0.906593406593407	1	0.521978021978022	4
0	0.0316455696202525	0.126582278481013	0.329113924050633	0.411392405063291	0.474683544303799	0.696202531645569	0.848101265822785	1	0.531645569620254	4
0	0.135999999999996	0.223999999999997	0.495999999999995	0.559999999999995	0.663999999999994	0.744	0.936	1	0.711999999999996	2
0	0.1	0.175000000000001	0.330000000000001	0.395000000000001	0.515000000000001	0.755000000000001	0.88	1	0.515000000000001	4
0	0.149253731343284	0.261194029850744	0.373134328358208	0.462686567164178	0.529850746268655	0.731343283582089	0.880597014925373	1	0.597014925373135	2
0	0.13422818791946	0.234899328859061	0.295302013422816	0.355704697986577	0.469798657718123	0.778523489932884	0.892617449664429	1	0.530201342281877	4
0	0.113636363636364	0.198863636363636	0.397727272727273	0.443181818181818	0.477272727272727	0.823863636363637	0.909090909090909	1	0.528409090909091	4
0	0.108108108108108	0.18918918918919	0.329729729729729	0.37837837837838	0.50810810810811	0.875675675675675	0.92972972972973	1	0.50810810810811	4
0	0.0999999999999995	0.188235294117647	0.235294117647059	0.311764705882353	0.452941176470588	0.800000000000001	0.858823529411765	1	0.452941176470588	3
0	0.150375939849624	0.26315789473684	0.26315789473684	0.315789473684209	0.39097744360902	0.864661654135337	0.924812030075186	1	0.458646616541353	3
0	0.104651162790698	0.191860465116279	0.284883720930233	0.36046511627907	0.430232558139535	0.715116279069768	0.86046511627907	1	0.482558139534884	3
0	0.0472440944881905	0.0472440944881905	0.0551181102362246	0.157480314960633	0.291338582677163	0.669291338582673	0.866141732283463	1	0.362204724409449	1
0	0.0860927152317873	0.185430463576159	0.258278145695365	0.331125827814571	0.417218543046358	0.801324503311257	0.854304635761588	1	0.47682119205298	3
0	0.059880239520958	0.149700598802396	0.323353293413173	0.395209580838323	0.455089820359281	0.706586826347304	0.856287425149701	1	0.508982035928144	4
0	0.150375939849624	0.263157894736841	0.353383458646616	0.398496240601503	0.451127819548871	0.63157894736842	0.819548872180451	1	0.518796992481203	5
0	0.148148148148149	0.148148148148149	0.155555555555555	0.251851851851851	0.355555555555556	0.637037037037037	0.822222222222222	1	0.422222222222222	1
0	0.126582278481013	0.22151898734177	0.443037974683544	0.481012658227846	0.594936708860759	0.689873417721519	0.848101265822785	1	0.651898734177214	2
0	0.152671755725191	0.206106870229009	0.389312977099238	0.488549618320611	0.549618320610687	0.679389312977101	0.816793893129771	1	0.618320610687024	2
0	0.163934426229508	0.163934426229508	0.172131147540983	0.278688524590163	0.360655737704919	0.639344262295081	0.844262295081966	1	0.434426229508197	1
0	0.12987012987013	0.227272727272728	0.454545454545455	0.499999999999999	0.577922077922077	0.681818181818181	0.844155844155844	1	0.636363636363636	2
0	0.133333333333333	0.233333333333334	0.286666666666667	0.373333333333333	0.533333333333334	0.753333333333334	0.920000000000001	1	0.533333333333334	4
0	0.0852272727272759	0.170454545454547	0.284090909090913	0.357954545454549	0.494318181818185	0.755681818181818	0.880681818181819	1	0.545454545454545	4
0	0.111111111111111	0.150000000000001	0.244444444444444	0.305555555555556	0.427777777777777	0.822222222222222	0.866666666666667	1	0.438888888888887	3
0	0.127388535031847	0.197452229299364	0.433121019108281	0.496815286624204	0.579617834394904	0.694267515923567	0.853503184713376	1	0.636942675159236	2
0	0.13157894736842	0.203947368421052	0.302631578947367	0.388157894736842	0.453947368421053	0.677631578947369	0.842105263157894	1	0.513157894736841	5
0	0.155038759689923	0.271317829457364	0.294573643410853	0.37984496124031	0.449612403100776	0.689922480620155	0.829457364341085	1	0.488372093023255	5
0	0.130718954248366	0.22875816993464	0.326797385620915	0.411764705882353	0.529411764705882	0.679738562091502	0.843137254901961	1	0.588235294117648	5
0	0.10919540229885	0.195402298850575	0.275862068965517	0.350574712643678	0.488505747126437	0.775862068965517	0.862068965517241	1	0.540229885057471	4
0	0.135714285714287	0.242857142857143	0.271428571428571	0.357142857142857	0.5	0.650000000000001	0.828571428571429	1	0.550000000000001	5
0	0.287878787878787	0.393939393939395	0.393939393939395	0.5	0.590909090909091	0.590909090909091	0.681818181818182	1	0.681818181818182	2
0	0.101010101010103	0.176767676767677	0.292929292929296	0.358585858585861	0.479797979797982	0.833333333333332	0.878787878787879	1	0.479797979797982	4
0	0.104712041884817	0.18324607329843	0.277486910994764	0.345549738219897	0.471204188481677	0.743455497382201	0.87434554973822	1	0.518324607329844	4
0	0.125786163522013	0.220125786163521	0.421383647798742	0.503144654088049	0.566037735849057	0.69811320754717	0.855345911949685	1	0.616352201257862	2
0	0.113636363636364	0.198863636363634	0.295454545454543	0.369318181818179	0.477272727272725	0.869318181818179	0.909090909090909	1	0.52840909090909	4
0	0.140845070422535	0.246478873239437	0.323943661971832	0.408450704225353	0.43661971830986	0.725352112676056	0.901408450704224	1	0.478873239436619	4
0	0.125	0.218750000000001	0.231249999999999	0.293750000000001	0.4	0.856249999999999	0.893750000000001	1	0.425	3
0	0.126050420168068	0.126050420168068	0.134453781512605	0.243697478991599	0.319327731092439	0.6218487394958	0.831932773109244	1	0.35294117647059	1
0	0.096969696969697	0.133333333333332	0.327272727272726	0.375757575757575	0.460606060606061	0.733333333333333	0.866666666666665	1	0.503030303030301	4
0	0.133333333333332	0.244444444444441	0.281481481481477	0.355555555555556	0.459259259259255	0.67407407407407	0.859259259259258	1	0.518518518518515	5
0	0.143884892086328	0.143884892086328	0.151079136690647	0.244604316546761	0.402877697841726	0.661870503597119	0.841726618705035	1	0.467625899280571	1
0	0.114285714285715	0.16	0.342857142857144	0.417142857142857	0.491428571428571	0.874285714285715	0.942857142857144	1	0.542857142857142	4
0	0.127819548872181	0.240601503759399	0.293233082706767	0.368421052631579	0.428571428571429	0.646616541353383	0.834586466165413	1	0.481203007518797	5
0	0.122699386503065	0.21472392638037	0.312883435582824	0.374233128834357	0.447852760736195	0.871165644171779	0.926380368098162	1	0.503067484662578	4
0	0.145985401459857	0.255474452554745	0.372262773722628	0.430656934306569	0.496350364963506	0.642335766423356	0.824817518248176	1	0.562043795620442	5
0	0.0902777777777772	0.194444444444445	0.3125	0.395833333333333	0.472222222222223	0.708333333333334	0.833333333333335	1	0.534722222222222	4
0	0.0985915492957764	0.204225352112676	0.211267605633802	0.281690140845071	0.450704225352113	0.795774647887324	0.866197183098594	1	0.471830985915494	3
0	0.10691823899371	0.201257861635221	0.301886792452831	0.383647798742138	0.477987421383649	0.691823899371069	0.849056603773585	1	0.534591194968554	5
0	0.140845070422532	0.140845070422532	0.147887323943661	0.239436619718309	0.408450704225351	0.661971830985915	0.830985915492958	1	0.408450704225351	1
0	0.0751879699248138	0.187969924812033	0.360902255639098	0.428571428571428	0.548872180451127	0.631578947368422	0.819548872180451	1	0.616541353383461	5
0	0.148148148148148	0.259259259259259	0.325925925925925	0.392592592592592	0.466666666666666	0.637037037037037	0.822222222222222	1	0.533333333333333	5
0	0.0696202531645564	0.158227848101265	0.196202531645569	0.253164556962026	0.386075949367088	0.689873417721519	0.848101265822786	1	0.443037974683545	1
0	0.105820105820104	0.185185185185186	0.259259259259256	0.328042328042325	0.455026455026452	0.772486772486772	0.873015873015873	1	0.455026455026452	3
0	0.07462686567164	0.186567164179107	0.231343283582093	0.291044776119407	0.343283582089553	0.850746268656713	0.93283582089552	1	0.410447761194027	3
0	0.142857142857142	0.255639097744361	0.398496240601503	0.458646616541353	0.518796992481203	0.63157894736842	0.819548872180451	1	0.586466165413533	5
0	0.143884892086328	0.244604316546761	0.410071942446039	0.47482014388489	0.525179856115104	0.834532374100716	0.935251798561149	1	0.589928057553955	4
0	0.0977011494252868	0.183908045977012	0.310344827586206	0.385057471264369	0.517241379310344	0.718390804597701	0.862068965517241	1	0.563218390804597	4
0	0.122699386503067	0.214723926380368	0.233128834355828	0.294478527607362	0.398773006134969	0.858895705521472	0.883435582822086	1	0.45398773006135	3
0	0.169491525423727	0.254237288135592	0.338983050847456	0.398305084745763	0.466101694915254	0.644067796610169	0.796610169491525	1	0.491525423728813	5
0	0.114285714285712	0.200000000000001	0.279999999999997	0.337142857142853	0.411428571428572	0.719999999999998	0.862857142857143	1	0.462857142857141	3
0	0.0760233918128662	0.140350877192983	0.36842105263158	0.426900584795323	0.538011695906433	0.853801169590644	1	1	0.567251461988304	4
0	0.0422535211267606	0.0774647887323944	0.133802816901409	0.225352112676057	0.345070422535212	0.669014084507042	0.830985915492958	1	0.387323943661972	1
0	0.129032258064516	0.225806451612904	0.425806451612904	0.464516129032258	0.509677419354839	0.683870967741936	0.845161290322581	1	0.567741935483871	2
0	0.139860139860137	0.244755244755246	0.251748251748249	0.307692307692305	0.384615384615383	0.860139860139863	0.923076923076922	1	0.447552447552449	3
0	0.130718954248366	0.183006535947713	0.196078431372551	0.281045751633988	0.333333333333334	0.679738562091504	0.843137254901961	1	0.379084967320263	1
0	0.106249999999999	0.2	0.306249999999999	0.387500000000001	0.481249999999999	0.693750000000001	0.85	1	0.537500000000001	5
0	0.108108108108108	0.18918918918919	0.335135135135137	0.389189189189189	0.491891891891893	0.756756756756757	0.886486486486487	1	0.524324324324324	4
0	0.115606936416185	0.202312138728324	0.283236994219653	0.358381502890172	0.479768786127169	0.716763005780347	0.861271676300578	1	0.531791907514451	4
0	0.120481927710844	0.186746987951807	0.421686746987952	0.475903614457831	0.620481927710844	0.704819277108434	0.855421686746989	1	0.620481927710844	2
0	0.0805369127516779	0.181208053691276	0.348993288590604	0.436241610738255	0.503355704697988	0.671140939597316	0.838926174496644	1	0.563758389261745	5
0	0.104477611940297	0.164179104477611	0.164179104477611	0.231343283582091	0.358208955223881	0.634328358208956	0.820895522388059	1	0.425373134328358	1
0	0.136986301369862	0.136986301369862	0.143835616438356	0.232876712328767	0.397260273972603	0.664383561643836	0.835616438356165	1	0.397260273972603	1
0	0.0551181102362213	0.173228346456695	0.330708661417324	0.393700787401576	0.488188976377954	0.779527559055118	0.83464566929134	1	0.559055118110237	4
0	0.0534759358288782	0.122994652406418	0.27807486631016	0.331550802139038	0.449197860962567	0.737967914438501	0.871657754010695	1	0.491978609625668	3
0	0.09375	0.210937500000001	0.210937500000001	0.3125	0.390625000000002	0.65625	0.851562499999999	1	0.460937500000001	3
0	0.145985401459854	0.255474452554745	0.401459854014599	0.459854014598541	0.635036496350366	0.72992700729927	0.897810218978102	1	0.686131386861314	2
0	0.135135135135135	0.236486486486487	0.358108108108107	0.418918918918917	0.560810810810812	0.66891891891892	0.837837837837838	1	0.621621621621622	5
0	0.120481927710841	0.210843373493972	0.307228915662647	0.3855421686747	0.524096385542169	0.849397590361449	1	1	0.57831325301205	4
0	0.194805194805202	0.194805194805202	0.207792207792208	0.376623376623376	0.688311688311688	0.675324675324682	0.688311688311688	1	0.688311688311688	5
0	0.136054421768708	0.238095238095238	0.476190476190477	0.53061224489796	0.63265306122449	0.72108843537415	0.836734693877551	1	0.680272108843538	2
0	0.122448979591835	0.224489795918369	0.462585034013608	0.523809523809523	0.632653061224489	0.666666666666665	0.836734693877551	1	0.693877551020409	2
0	0.0419580419580435	0.0699300699300714	0.0699300699300714	0.13986013986014	0.307692307692307	0.685314685314686	0.86013986013986	1	0.307692307692307	1
0	0.145985401459854	0.145985401459854	0.153284671532846	0.24817518248175	0.364963503649634	0.693430656934305	0.875912408759122	1	0.408759124087592	1
0	0.149253731343284	0.261194029850746	0.276119402985074	0.328358208955223	0.402985074626865	0.87313432835821	0.932835820895523	1	0.462686567164178	3
0	0.00581395348837275	0.0930232558139536	0.296511627906976	0.372093023255814	0.447674418604651	0.715116279069768	0.860465116279071	1	0.500000000000001	4
0	0.118343195266272	0.207100591715977	0.366863905325445	0.443786982248522	0.502958579881656	0.733727810650888	0.88165680473373	1	0.556213017751481	4
0	0.128205128205128	0.224358974358975	0.250000000000001	0.307692307692308	0.358974358974359	0.692307692307692	0.846153846153846	1	0.397435897435899	3
0	0.132450331125828	0.152317880794701	0.152317880794701	0.218543046357615	0.377483443708609	0.841059602649006	0.900662251655628	1	0.437086092715231	1
0	0.136690647482015	0.244604316546763	0.374100719424461	0.410071942446044	0.467625899280576	0.64748201438849	0.827338129496404	1	0.532374100719425	5
0	0.134228187919463	0.234899328859058	0.422818791946307	0.51006711409396	0.557046979865773	0.671140939597313	0.838926174496644	1	0.617449664429528	2
0	0.114285714285714	0.200000000000001	0.279999999999999	0.354285714285715	0.411428571428571	0.788571428571429	0.862857142857143	1	0.462857142857142	3
0	0.138888888888888	0.243055555555555	0.25	0.326388888888889	0.486111111111111	0.659722222222222	0.833333333333334	1	0.506944444444444	5
0	0.104166666666667	0.182291666666665	0.348958333333332	0.385416666666669	0.473958333333333	0.755208333333334	0.88541666666667	1	0.520833333333335	4
0	0.158730158730156	0.269841269841269	0.373015873015872	0.428571428571426	0.507936507936511	0.682539682539681	0.880952380952383	1	0.579365079365078	5
0	0.141843971631206	0.23404255319149	0.23404255319149	0.319148936170214	0.446808510638299	0.787234042553191	0.865248226950355	1	0.510638297872341	3
0	0.10655737704918	0.229508196721312	0.30327868852459	0.352459016393444	0.426229508196722	0.598360655737705	0.80327868852459	1	0.5	5
0	0.150375939849624	0.240601503759399	0.240601503759399	0.308270676691729	0.375939849624059	0.86466165413534	0.93984962406015	1	0.443609022556392	3
0	0.119047619047619	0.208333333333333	0.386904761904762	0.464285714285715	0.55952380952381	0.708333333333334	0.857142857142858	1	0.613095238095238	2
0	0.0933333333333327	0.173333333333333	0.28	0.353333333333333	0.42	0.673333333333334	0.840000000000001	1	0.48	3
0	0.147058823529412	0.257352941176469	0.345588235294116	0.441176470588237	0.566176470588236	0.720588235294118	0.875	1	0.617647058823531	2
0	0.123376623376623	0.220779220779221	0.344155844155844	0.428571428571429	0.480519480519481	0.844155844155844	0.954545454545454	1	0.538961038961039	4
0	0.13422818791946	0.194630872483221	0.348993288590601	0.436241610738252	0.489932885906037	0.785234899328859	0.953020134228184	1	0.536912751677853	4
0	0.130718954248366	0.176470588235292	0.45751633986928	0.529411764705882	0.601307189542481	0.751633986928103	0.91503267973856	1	0.660130718954248	2
0	0.116279069767442	0.186046511627907	0.406976744186046	0.482558139534883	0.523255813953488	0.819767441860467	0.959302325581397	1	0.558139534883722	4
0	0.150375939849624	0.26315789473684	0.375939849624059	0.436090225563908	0.503759398496239	0.646616541353382	0.834586466165412	1	0.571428571428572	5
0	0.132450331125828	0.211920529801325	0.211920529801325	0.245033112582782	0.390728476821192	0.675496688741722	0.841059602649006	1	0.450331125827815	1
0	0.121951219512193	0.21341463414634	0.420731707317074	0.475609756097561	0.621951219512195	0.701219512195122	0.853658536585366	1	0.676829268292683	2
0	0.0692307692307693	0.146153846153846	0.3	0.4	0.461538461538462	0.669230769230769	0.861538461538461	1	0.5	4
0	0.118750000000001	0.168750000000001	0.362500000000004	0.381249999999999	0.418750000000001	0.787500000000001	0.862499999999999	1	0.468750000000001	4
0	0.175438596491228	0.30701754385965	0.350877192982456	0.42982456140351	0.508771929824561	0.587719298245615	0.807017543859649	1	0.587719298245615	5
0	0.15625	0.273437500000001	0.28125	0.351562499999999	0.492187499999997	0.617187499999997	0.8125	1	0.5625	5
0	0.0773809523809524	0.166666666666667	0.333333333333333	0.392857142857142	0.446428571428571	0.773809523809524	0.898809523809524	1	0.5	4
0	0.0812499999999993	0.174999999999997	0.374999999999997	0.431249999999999	0.537499999999996	0.837499999999996	0.906249999999997	1	0.593749999999998	4
0	0.124999999999997	0.124999999999997	0.131249999999999	0.212499999999999	0.362499999999999	0.693749999999998	0.85	1	0.362499999999999	1
0	0.104166666666667	0.182291666666668	0.333333333333334	0.401041666666667	0.520833333333335	0.744791666666667	0.875000000000002	1	0.536458333333333	4
0	0.136054421768708	0.238095238095239	0.387755102040817	0.476190476190477	0.551020408163266	0.666666666666667	0.836734693877551	1	0.612244897959184	2
0	0.172413793103448	0.172413793103448	0.18103448275862	0.29310344827586	0.379310344827586	0.637931034482757	0.793103448275862	1	0.456896551724137	1
0	0.140845070422535	0.246478873239437	0.316901408450704	0.408450704225352	0.492957746478874	0.654929577464788	0.830985915492958	1	0.556338028169015	5
0	0.150375939849624	0.26315789473684	0.375939849624059	0.473684210526314	0.586466165413533	0.631578947368422	0.819548872180451	1	0.654135338345863	2
0	0.00628930817609715	0.0817610062893076	0.320754716981128	0.383647798742138	0.471698113207543	0.691823899371066	0.849056603773585	1	0.528301886792451	4
0	0.0723684210526323	0.164473684210529	0.223684210526314	0.289473684210529	0.375000000000002	0.730263157894735	0.894736842105263	1	0.421052631578947	3
0	0.15625	0.179687500000001	0.179687500000001	0.265625	0.398437500000001	0.625	0.820312499999999	1	0.460937499999999	1
0	0.116279069767442	0.203488372093024	0.255813953488372	0.319767441860466	0.406976744186048	0.744186046511628	0.86046511627907	1	0.459302325581396	3
0	0.138888888888888	0.166666666666666	0.166666666666666	0.229166666666665	0.347222222222223	0.673611111111108	0.847222222222221	1	0.409722222222219	1
0	0.11904761904762	0.238095238095236	0.277777777777778	0.349206349206345	0.412698412698408	0.714285714285711	0.825396825396824	1	0.484126984126982	3
0	0.074766355140187	0.121495327102805	0.121495327102805	0.205607476635514	0.429906542056075	0.551401869158878	0.785046728971963	1	0.514018691588785	1
0	0.112994350282486	0.197740112994351	0.220338983050848	0.282485875706215	0.418079096045198	0.785310734463277	0.864406779661017	1	0.418079096045198	3
0	0.157480314960627	0.212598425196845	0.212598425196845	0.275590551181097	0.38582677165354	0.826771653543305	0.897637795275591	1	0.456692913385826	3
0	0.115606936416185	0.202312138728324	0.289017341040462	0.364161849710983	0.491329479768786	0.716763005780347	0.861271676300578	1	0.543352601156069	4
0	0.0708661417322828	0.0708661417322828	0.0787401574803134	0.181102362204722	0.370078740157479	0.661417322834647	0.811023622047244	1	0.370078740157479	1
0	0.122699386503068	0.214723926380368	0.337423312883435	0.41717791411043	0.515337423312884	0.846625766871166	1	1	0.570552147239264	4
0	0.137931034482759	0.234482758620688	0.310344827586206	0.386206896551724	0.475862068965517	0.662068965517242	0.83448275862069	1	0.537931034482757	5
0	0.0547945205479452	0.136986301369863	0.226027397260275	0.315068493150685	0.479452054794521	0.664383561643835	0.835616438356164	1	0.479452054794521	3
0	0.119718309859155	0.225352112676057	0.387323943661971	0.436619718309859	0.492957746478873	0.654929577464788	0.830985915492958	1	0.556338028169014	5
0	0.0489510489510467	0.104895104895103	0.216783216783215	0.307692307692308	0.447552447552445	0.825174825174826	1	1	0.510489510489511	3
0	0.10236220472441	0.220472440944882	0.236220472440945	0.307086614173228	0.393700787401575	0.661417322834646	0.858267716535433	1	0.464566929133858	3
0	0.120481927710843	0.210843373493976	0.403614457831326	0.463855421686747	0.608433734939759	0.704819277108434	0.855421686746988	1	0.662650602409639	2
0	0.126582278481013	0.202531645569621	0.259493670886076	0.310126582278481	0.424050632911392	0.740506329113924	0.89873417721519	1	0.481012658227847	3
0	0.0419580419580405	0.0699300699300685	0.0699300699300685	0.153846153846153	0.321678321678321	0.699300699300701	0.874125874125875	1	0.349650349650349	1
0	0.103092783505155	0.18041237113402	0.340206185567011	0.407216494845361	0.530927835051546	0.747422680412371	0.876288659793814	1	0.551546391752577	4
0	0.0869565217391291	0.130434782608695	0.385093167701862	0.465838509316768	0.503105590062111	0.726708074534161	0.881987577639751	1	0.5527950310559	4
0	0.0710382513661197	0.153005464480874	0.344262295081967	0.40983606557377	0.459016393442622	0.754098360655737	0.890710382513661	1	0.508196721311475	4
0	0.129032258064516	0.225806451612903	0.451612903225806	0.496774193548387	0.561290322580645	0.683870967741936	0.84516129032258	1	0.619354838709677	2
0	0.149606299212598	0.220472440944882	0.220472440944882	0.291338582677165	0.393700787401573	0.803149606299212	0.913385826771653	1	0.464566929133858	3
0	0.149253731343287	0.25373134328358	0.470149253731347	0.544776119402987	0.671641791044773	0.701492537313433	0.888059701492533	1	0.738805970149253	2
0	0.179999999999998	0.270000000000001	0.270000000000001	0.36	0.44	0.510000000000001	0.76	1	0.529999999999999	5
0	0.117647058823532	0.205882352941177	0.211764705882356	0.258823529411768	0.400000000000003	0.835294117647061	0.864705882352943	1	0.452941176470588	3
0	0.144927536231881	0.253623188405798	0.478260869565217	0.52898550724638	0.579710144927537	0.717391304347828	0.898550724637679	1	0.644927536231887	2
0	0.11214953271028	0.242990654205609	0.35514018691589	0.476635514018692	0.57943925233645	0.57943925233645	0.775700934579439	1	0.663551401869159	2
0	0.0833333333333334	0.12962962962963	0.37037037037037	0.453703703703703	0.527777777777778	0.694444444444444	0.888888888888889	1	0.611111111111111	4
0	0.15748031496063	0.2755905511811	0.346456692913387	0.4251968503937	0.496062992125983	0.614173228346457	0.811023622047244	1	0.566929133858269	5
0	0.105960264900662	0.205298013245034	0.245033112582781	0.298013245033112	0.350993377483444	0.675496688741722	0.841059602649006	1	0.370860927152319	1
0	0.149253731343284	0.261194029850748	0.447761194029851	0.485074626865672	0.582089552238805	0.634328358208956	0.820895522388059	1	0.649253731343285	2
0	0.12987012987013	0.12987012987013	0.136363636363636	0.22077922077922	0.331168831168832	0.75974025974026	0.844155844155844	1	0.363636363636364	1
0	0.130081300813008	0.252032520325201	0.252032520325201	0.317073170731705	0.414634146341462	0.601626016260162	0.804878048780487	1	0.487804878048782	5
0	0.119760479041916	0.209580838323354	0.347305389221558	0.425149700598803	0.497005988023952	0.706586826347306	0.856287425149701	1	0.532934131736526	4
0	0.124137931034487	0.227586206896554	0.420689655172412	0.49655172413793	0.558620689655173	0.724137931034483	0.882758620689653	1	0.620689655172417	2
0	0.0662251655629126	0.0662251655629126	0.0728476821192062	0.158940397350994	0.317880794701987	0.682119205298013	0.841059602649006	1	0.377483443708612	1
0	0.136054421768704	0.197278911564625	0.476190476190477	0.537414965986392	0.585034013605437	0.693877551020403	0.86394557823129	1	0.646258503401358	2
0	0.128571428571427	0.22142857142857	0.22142857142857	0.299999999999999	0.464285714285718	0.650000000000003	0.828571428571428	1	0.528571428571429	5
0	0.114942528735635	0.155172413793104	0.32183908045977	0.373563218390806	0.488505747126436	0.787356321839081	0.879310344827587	1	0.540229885057472	4
0	0.13986013986014	0.244755244755246	0.419580419580421	0.510489510489511	0.587412587412589	0.657342657342657	0.832167832167832	1	0.650349650349651	2
0	0.124223602484475	0.124223602484475	0.130434782608695	0.211180124223606	0.360248447204967	0.695652173913042	0.850931677018634	1	0.416149068322981	1
0	0.110169491525423	0.110169491525423	0.118644067796612	0.228813559322034	0.347457627118642	0.593220338983052	0.805084745762711	1	0.423728813559323	1
0	0.121951219512195	0.213414634146342	0.426829268292683	0.50609756097561	0.603658536585367	0.701219512195123	0.853658536585366	1	0.658536585365854	2
0	0.155038759689922	0.271317829457364	0.27906976744186	0.356589147286822	0.496124031007752	0.62015503875969	0.813953488372093	1	0.565891472868217	5
0	0.12987012987013	0.181818181818182	0.454545454545454	0.51948051948052	0.603896103896104	0.681818181818182	0.844155844155844	1	0.642857142857142	2
0	0.149253731343284	0.149253731343284	0.156716417910447	0.253731343283581	0.388059701492535	0.776119402985073	0.96268656716418	1	0.455223880597015	1
0	0.127388535031847	0.222929936305733	0.235668789808917	0.305732484076433	0.414012738853503	0.815286624203822	0.878980891719744	1	0.471337579617836	3
0	0.115853658536585	0.207317073170732	0.280487804878049	0.347560975609756	0.481707317073171	0.786585365853658	0.853658536585366	1	0.530487804878049	4
0	0.152671755725188	0.26717557251908	0.312977099236639	0.381679389312978	0.465648854961834	0.648854961832064	0.839694656488549	1	0.534351145038166	5
0	0.149253731343284	0.149253731343284	0.156716417910447	0.253731343283581	0.365671641791045	0.686567164179106	0.87313432835821	1	0.432835820895521	1
0	0.132450331125828	0.185430463576159	0.231788079470199	0.317880794701987	0.43046357615894	0.774834437086093	0.894039735099338	1	0.490066225165563	3
0	0.00534759358288741	0.085561497326203	0.272727272727273	0.342245989304813	0.470588235294118	0.812834224598931	0.871657754010695	1	0.470588235294118	3
0	0.116279069767442	0.203488372093023	0.331395348837209	0.406976744186047	0.488372093023256	0.715116279069768	0.86046511627907	1	0.540697674418605	4
0	0.129870129870133	0.227272727272728	0.376623376623376	0.46103896103896	0.532467532467532	0.681818181818185	0.844155844155844	1	0.571428571428572	5
0	0.0696202531645576	0.11392405063291	0.31645569620253	0.373417721518987	0.468354430379745	0.791139240506327	0.89873417721519	1	0.5126582278481	4
0	0.136752136752137	0.213675213675213	0.213675213675213	0.290598290598289	0.495726495726494	0.606837606837605	0.820512820512817	1	0.57264957264957	5
0	0.143884892086331	0.251798561151079	0.460431654676259	0.539568345323741	0.661870503597122	0.705035971223022	0.884892086330935	1	0.726618705035971	2
0	0.120481927710844	0.180722891566267	0.421686746987954	0.457831325301205	0.602409638554218	0.795180722891567	0.945783132530121	1	0.602409638554218	2
0	0.15625	0.2734375	0.2734375	0.3671875	0.5546875	0.65625	0.8515625	1	0.5546875	5
0	0.140845070422534	0.225352112676055	0.330985915492957	0.401408450704225	0.542253521126761	0.76056338028169	0.852112676056339	1	0.605633802816901	4
0	0.124223602484472	0.124223602484472	0.130434782608698	0.211180124223604	0.360248447204971	0.695652173913044	0.850931677018633	1	0.360248447204971	1
0	0.121951219512195	0.213414634146342	0.329268292682928	0.408536585365854	0.542682926829268	0.701219512195123	0.853658536585366	1	0.560975609756098	5
0	0.143884892086331	0.237410071942446	0.309352517985611	0.37410071942446	0.467625899280576	0.726618705035972	0.906474820143885	1	0.532374100719425	4
0	0.152671755725191	0.152671755725191	0.16030534351145	0.259541984732825	0.358778625954198	0.625954198473283	0.816793893129771	1	0.427480916030535	1
0	0.161290322580645	0.217741935483872	0.217741935483872	0.32258064516129	0.516129032258065	0.645161290322581	0.846774193548386	1	0.580645161290323	5
0	0.131944444444445	0.173611111111113	0.173611111111113	0.25	0.368055555555558	0.75	0.909722222222223	1	0.416666666666667	1
0	0.145038167938931	0.183206106870227	0.221374045801528	0.320610687022901	0.465648854961833	0.6412213740458	0.832061068702292	1	0.519083969465648	5
0	0.102040816326531	0.178571428571429	0.357142857142858	0.39795918367347	0.520408163265307	0.770408163265307	0.897959183673469	1	0.566326530612245	4
0	0.131034482758618	0.234482758620688	0.399999999999999	0.46896551724138	0.53103448275862	0.675862068965516	0.841379310344827	1	0.593103448275861	2
0	0.13986013986014	0.237762237762236	0.237762237762236	0.314685314685314	0.405594405594404	0.762237762237761	0.881118881118879	1	0.46153846153846	3
0	0.119760479041916	0.209580838323354	0.305389221556887	0.383233532934132	0.526946107784432	0.892215568862275	1	1	0.580838323353294	4
0	0.159292035398228	0.212389380530973	0.212389380530973	0.274336283185837	0.398230088495573	0.707964601769909	0.920353982300882	1	0.477876106194691	3
0	0.137931034482761	0.220689655172413	0.220689655172413	0.289655172413797	0.455172413793107	0.84137931034483	0.903448275862068	1	0.455172413793107	3
0	0.143884892086331	0.237410071942447	0.438848920863311	0.525179856115109	0.640287769784172	0.683453237410072	0.863309352517986	1	0.705035971223022	2
0	0.0612244897959192	0.0612244897959192	0.0680272108843538	0.156462585034014	0.299319727891157	0.748299319727892	0.836734693877551	1	0.360544217687076	1
0	0.165289256198347	0.289256198347109	0.289256198347109	0.380165289256199	0.446280991735538	0.62809917355372	0.834710743801653	1	0.520661157024795	5
0	0.10752688172043	0.188172043010752	0.333333333333334	0.403225806451613	0.489247311827957	0.736559139784946	0.870967741935484	1	0.53763440860215	4
0	0.161290322580645	0.282258064516129	0.362903225806452	0.467741935483871	0.596774193548387	0.693548387096774	0.895161290322581	1	0.669354838709677	2
0	0.0070921985815595	0.0992907801418425	0.361702127659572	0.453900709219859	0.5177304964539	0.815602836879431	0.879432624113476	1	0.581560283687942	4
0	0.180180180180179	0.180180180180179	0.189189189189188	0.306306306306306	0.369369369369369	0.558558558558558	0.783783783783784	1	0.432432432432432	1
0	0.05607476635514	0.11214953271028	0.11214953271028	0.196261682242991	0.401869158878505	0.663551401869159	0.88785046728972	1	0.476635514018691	1
0	0.0072992700729919	0.116788321167883	0.372262773722626	0.46715328467153	0.532846715328467	0.642335766423355	0.824817518248175	1	0.576642335766421	5
0	0.120481927710843	0.204819277108434	0.216867469879518	0.295180722891566	0.439759036144579	0.753012048192771	0.903614457831325	1	0.439759036144579	3
0	0.123456790123457	0.191358024691356	0.191358024691356	0.253086419753086	0.388888888888887	0.697530864197531	0.851851851851852	1	0.413580246913579	1
0	0.12987012987013	0.227272727272728	0.285714285714286	0.350649350649353	0.493506493506494	0.811688311688312	0.876623376623379	1	0.551948051948052	4
0	0.11764705882353	0.147058823529412	0.147058823529412	0.220588235294117	0.286764705882351	0.683823529411766	0.867647058823531	1	0.352941176470589	1
0	0.120481927710844	0.186746987951808	0.397590361445782	0.451807228915664	0.596385542168676	0.704819277108434	0.855421686746988	1	0.650602409638555	2
0	0.162601626016261	0.284552845528453	0.300813008130081	0.373983739837398	0.512195121951218	0.601626016260162	0.804878048780487	1	0.585365853658535	5
0	0.00884955752212292	0.0619469026548644	0.451327433628316	0.495575221238935	0.68141592920354	0.68141592920354	0.787610619469026	1	0.761061946902654	2
0	0.121212121212121	0.200000000000002	0.33939393939394	0.406060606060607	0.484848484848485	0.703030303030303	0.854545454545454	1	0.509090909090909	4
0	0.0787878787878789	0.16969696969697	0.260606060606061	0.321212121212121	0.460606060606061	0.703030303030303	0.854545454545454	1	0.503030303030303	3
0	0.120967741935483	0.241935483870968	0.298387096774193	0.362903225806451	0.419354838709678	0.60483870967742	0.806451612903225	1	0.491935483870968	5
0	0.143884892086331	0.25179856115108	0.446043165467624	0.525179856115107	0.633093525179856	0.676258992805753	0.856115107913669	1	0.697841726618704	2
0	0.13698630136986	0.239726027397261	0.239726027397261	0.315068493150687	0.397260273972602	0.84246575342466	0.924657534246574	1	0.458904109589043	3
0	0.106951871657752	0.18716577540107	0.342245989304813	0.411764705882352	0.497326203208555	0.743315508021391	0.87700534759358	1	0.529411764705883	4
0	0.0872093023255809	0.174418604651163	0.273255813953488	0.348837209302326	0.476744186046512	0.738372093023256	0.883720930232558	1	0.523255813953489	4
0	0.097826086956523	0.260869565217391	0.315217391304347	0.402173913043477	0.489130434782607	0.51086956521739	0.782608695652174	1	0.58695652173913	5
0	0.131578947368421	0.230263157894738	0.368421052631579	0.434210526315789	0.578947368421053	0.677631578947369	0.842105263157895	1	0.638157894736843	2
0	0.150684931506848	0.150684931506848	0.164383561643836	0.342465753424657	0.671232876712328	0.657534246575343	0.671232876712328	1	0.671232876712328	5
0	0.114285714285714	0.199999999999999	0.291428571428571	0.365714285714285	0.485714285714285	0.719999999999999	0.862857142857143	1	0.537142857142856	4
0	0.152	0.2	0.248	0.351999999999999	0.472	0.616	0.816	1	0.544	5
0	0.190476190476191	0.333333333333333	0.371428571428571	0.447619047619047	0.523809523809523	0.657142857142857	0.895238095238094	1	0.60952380952381	5
0	0.102040816326531	0.178571428571427	0.336734693877551	0.403061224489795	0.525510204081632	0.760204081632654	0.877551020408163	1	0.525510204081632	4
0	0.0628571428571436	0.148571428571428	0.302857142857143	0.360000000000001	0.497142857142859	0.72	0.862857142857143	1	0.54857142857143	4
0	0.181818181818182	0.263636363636363	0.263636363636363	0.3	0.418181818181817	0.554545454545455	0.781818181818181	1	0.500000000000002	5
0	0.110497237569061	0.193370165745855	0.342541436464088	0.414364640883977	0.447513812154697	0.729281767955801	0.867403314917129	1	0.475138121546962	4
0	0.138888888888889	0.243055555555556	0.375000000000002	0.437500000000001	0.493055555555556	0.659722222222223	0.833333333333333	1	0.520833333333334	5
0	0.156250000000001	0.273437499999998	0.281250000000001	0.3515625	0.492187499999999	0.6171875	0.812499999999999	1	0.562499999999998	5
0	0.155038759689923	0.271317829457364	0.511627906976744	0.573643410852713	0.666666666666667	0.744186046511628	0.937984496124031	1	0.736434108527131	2
0	0.120370370370369	0.120370370370369	0.129629629629628	0.249999999999997	0.314814814814813	0.546296296296293	0.777777777777778	1	0.398148148148145	1
0	0.150375939849621	0.157894736842105	0.157894736842105	0.248120300751876	0.315789473684209	0.631578947368418	0.819548872180451	1	0.383458646616542	1
