,ECG_P_Onsets,ECG_P_Peaks,ECG_P_Offsets,ECG_Q_Peaks,ECG_R_Peaks,ECG_S_Peaks,ECG_T_Onsets,ECG_T_Peaks,ECG_T_Offsets,ECG_R_Offsets
0,0.0,0.3166666666666665,0.3166666666666665,0.3333333333333332,0.55,0.7166666666666669,0.7166666666666669,0.8666666666666666,1.0,0.8666666666666666
1,0.0,0.24675324675324692,0.3766233766233769,0.3766233766233769,0.45454545454545486,0.5064935064935069,0.779220779220779,0.8701298701298701,1.0,0.5844155844155848
2,0.0,0.1398601398601396,0.18881118881118858,0.18881118881118858,0.23776223776223757,0.4055944055944055,0.8741258741258741,0.958041958041958,1.0,0.4685314685314681
3,0.0,0.10280373831775712,0.15887850467289735,0.5700934579439259,0.6915887850467297,0.7383177570093465,0.5700934579439259,0.7943925233644868,1.0,0.7943925233644868
4,0.0,0.08426966292134842,0.16853932584269685,0.36516853932584253,0.4101123595505617,0.5056179775280899,0.8258426966292138,0.9325842696629218,1.0,0.5561797752808989
5,0.0,0.15625000000000014,0.2734375000000002,0.2812500000000002,0.3359375000000003,0.39062500000000033,0.8046875000000007,0.9218750000000008,1.0,0.4609375000000004
6,0.0,0.3225806451612903,0.33870967741935304,0.33870967741935304,0.5483870967741935,0.6774193548387096,0.6774193548387096,0.8870967741935466,1.0,0.8225806451612885
7,0.0,0.20618556701030952,0.22680412371133818,0.2371134020618548,0.3711340206185548,0.4742268041237096,0.5154639175257715,0.7525773195876286,1.0,0.5463917525773191
8,0.0,0.006410256410257131,0.10256410256410271,0.32692307692307665,0.39102564102564086,0.44230769230769224,0.6923076923076933,0.8525641025641031,1.0,0.5000000000000007
9,0.0,0.005494505494504891,0.08791208791208802,0.28021978021977995,0.35164835164835084,0.43406593406593397,0.7307692307692311,0.8681318681318679,1.0,0.478021978021978
10,0.0,0.22988505747126467,0.3218390804597705,0.3218390804597705,0.4137931034482764,0.5287356321839062,0.6321839080459766,0.9195402298850561,1.0,0.6321839080459766
11,0.0,0.12987012987013005,0.22727272727272688,0.22727272727272688,0.28571428571428614,0.34415584415584394,0.6948051948051951,0.8571428571428584,1.0,0.4025974025974032
12,0.0,0.149532710280374,0.28971962616822355,0.3457943925233638,0.4205607476635508,0.4953271028037378,0.5420560747663558,0.775700934579439,1.0,0.5794392523364492
13,0.0,0.15238095238095253,0.29523809523809236,0.31428571428571356,0.3999999999999983,0.48571428571428304,0.5333333333333339,0.7714285714285712,1.0,0.5619047619047594
14,0.0,0.08552631578947295,0.18421052631578946,0.217105263157894,0.27631578947368274,0.3355263157894744,0.6907894736842098,0.8552631578947354,1.0,0.39473684210526316
15,0.0,0.1941747572815532,0.3398058252427192,0.3398058252427192,0.427184466019417,0.5145631067961148,0.6601941747572808,0.8932038834951447,1.0,0.6019417475728127
16,0.0,0.1388888888888889,0.1388888888888889,0.14583333333333257,0.23611111111111266,0.3333333333333333,0.7083333333333318,0.8819444444444452,1.0,0.39583333333333254
17,0.0,0.18518518518518595,0.32407407407407235,0.34259259259259295,0.41666666666666735,0.5,0.5462962962962955,0.7777777777777769,1.0,0.5833333333333326
18,0.0,0.10389610389610404,0.2012987012987023,0.22727272727272832,0.27922077922078037,0.33766233766233816,0.7532467532467544,0.8506493506493498,1.0,0.39610389610389596
19,0.0,0.05384615384615479,0.09999999999999931,0.09999999999999931,0.16153846153846096,0.22307692307692262,0.6538461538461541,0.8307692307692321,1.0,0.26923076923077055
20,0.0,0.12987012987013005,0.22727272727272832,0.2337662337662341,0.28571428571428614,0.34415584415584394,0.6948051948051965,0.8571428571428584,1.0,0.4025974025974046
21,0.0,0.07826086956522021,0.20869565217391284,0.3739130434782615,0.48695652173912995,0.5739130434782622,0.5739130434782622,0.7913043478260872,1.0,0.6347826086956506
22,0.0,0.07000000000000112,0.22000000000000222,0.24,0.33000000000000335,0.4900000000000033,0.6600000000000023,0.76,1.0,0.5700000000000033
23,0.0,0.03809523809523813,0.13333333333333136,0.48571428571428726,0.5619047619047636,0.7714285714285712,0.7714285714285712,0.8666666666666687,1.0,0.857142857142856
24,0.0,0.005917159763312972,0.09467455621301543,0.3017751479289931,0.3550295857988151,0.40828402366863975,0.7278106508875744,0.8757396449704145,1.0,0.4437869822485202
25,0.0,0.18018018018018073,0.31531531531531326,0.35135135135134943,0.43243243243243373,0.5225225225225221,0.5675675675675663,0.7927927927927951,1.0,0.6036036036036024
26,0.0,0.21739130434782608,0.34782608695652173,0.34782608695652173,0.43478260869565216,0.6739130434782584,0.6739130434782584,0.8043478260869541,1.0,0.771739130434779
27,0.0,0.050561797752808425,0.1292134831460657,0.32584269662921267,0.38202247191011035,0.4999999999999975,0.7528089887640421,0.8932584269662914,1.0,0.5505617977528084
28,0.0,0.13461538461538675,0.2788461538461528,0.3173076923076955,0.4038461538461517,0.4903846153846165,0.5288461538461592,0.7692307692307693,1.0,0.5769230769230812
29,0.0,0.10526315789473684,0.2039473684210563,0.22368421052631432,0.27631578947368274,0.3355263157894744,0.7828947368421089,0.8552631578947354,1.0,0.3947368421052661
30,0.0,0.10457516339869319,0.20261437908496588,0.21568627450980107,0.26797385620914765,0.3333333333333295,0.771241830065358,0.8496732026143807,1.0,0.39215686274509653
31,0.0,0.10457516339869258,0.20261437908497051,0.22875816993464074,0.28104575163398704,0.3333333333333333,0.7450980392156832,0.8496732026143757,1.0,0.3921568627451001
32,0.0,0.12820512820512572,0.2243589743589757,0.2435897435897457,0.29487179487179715,0.3525641025641014,0.7115384615384615,0.8589743589743628,1.0,0.4102564102564114
33,0.0,0.11111111111111305,0.20915032679738516,0.22875816993464074,0.28104575163398704,0.3398692810457538,0.718954248366013,0.8562091503267962,1.0,0.39869281045751476
34,0.0,0.1290322580645189,0.22580645161290377,0.23225806451613173,0.28387096774193815,0.3419354838709725,0.767741935483874,0.8516129032258087,1.0,0.40000000000000113
35,0.0,0.07142857142857147,0.1836734693877552,0.1836734693877552,0.2551020408163267,0.44897959183673497,0.6938775510204079,0.9489795918367346,1.0,0.5408163265306125
36,0.0,0.1459854014598542,0.25547445255474444,0.4379562043795622,0.5036496350364965,0.5620437956204383,0.6788321167883216,0.8248175182481757,1.0,0.6277372262773726
37,0.0,0.20930232558139536,0.3023255813953488,0.5232558139534884,0.5930232558139535,0.6511627906976745,0.5232558139534884,0.813953488372093,1.0,0.7558139534883721
38,0.0,0.18518518518518537,0.26851851851851877,0.37037037037036974,0.4259259259259253,0.4907407407407402,0.7962962962962961,0.9074074074074073,1.0,0.5462962962962958
39,0.0,0.07575757575757498,0.12121212121212047,0.12121212121212047,0.21212121212121146,0.3939393939393934,0.8863636363636371,0.9545454545454545,1.0,0.43181818181818216
40,0.0,0.15384615384615402,0.21978021978022005,0.5934065934065942,0.692307692307692,0.758241758241758,0.758241758241758,0.912087912087912,1.0,0.8571428571428558
41,0.0,0.19999999999999896,0.2941176470588226,0.2941176470588226,0.4352941176470581,0.6117647058823511,0.6117647058823511,0.7176470588235291,1.0,0.7176470588235291
42,0.0,0.10362694300518141,0.1813471502590669,0.36269430051813495,0.4145077720207245,0.5388601036269421,0.8393782383419682,0.8756476683937823,1.0,0.5388601036269421
43,0.0,0.14516129032257885,0.3870967741935484,0.3870967741935484,0.4999999999999982,0.6129032258064516,0.6129032258064516,0.8870967741935466,1.0,0.7580645161290305
44,0.0,0.12269938650306757,0.19631901840490812,0.23312883435582837,0.312883435582823,0.41717791411042976,0.7852760736196325,0.9018404907975459,1.0,0.4601226993865041
45,0.0,0.08988764044943831,0.2584269662921364,0.5280898876404514,0.6067415730337086,0.6516853932584278,0.5280898876404514,0.7303370786516851,1.0,0.7303370786516851
46,0.0,0.07339449541284411,0.15596330275229273,0.15596330275229273,0.27522935779816743,0.339449541284403,0.697247706422019,0.9266055045871558,1.0,0.4220183486238557
47,0.0,0.1240875912408752,0.17518248175182496,0.48905109489051213,0.5839416058394166,0.6569343065693453,0.6569343065693453,0.8248175182481751,1.0,0.7007299270072999
48,0.0,0.0063694267515916544,0.10191082802547778,0.3248407643312083,0.36942675159235555,0.46496815286624166,0.8343949044585972,0.9171974522292972,1.0,0.5095541401273861
49,0.0,0.15503875968992262,0.21705426356589166,0.21705426356589166,0.3178294573643405,0.3953488372093001,0.7286821705426345,0.922480620155037,1.0,0.4651162790697678
50,0.0,0.19753086419753113,0.2962962962962967,0.3456790123456795,0.5061728395061722,0.8024691358024688,0.7901234567901245,0.8024691358024688,1.0,0.8024691358024688
51,0.0,0.1900000000000011,0.3100000000000011,0.5900000000000011,0.6899999999999988,0.7699999999999989,0.7699999999999989,0.9000000000000022,1.0,0.8600000000000022
52,0.0,0.1111111111111099,0.24691358024691393,0.5185185185185165,0.6790123456790091,0.9753086419753059,0.9629629629629616,0.9753086419753059,1.0,0.9753086419753059
53,0.0,0.2439024390243909,0.35365853658536545,0.35365853658536545,0.4512195121951218,0.53658536585366,0.53658536585366,0.8048780487804873,1.0,0.5975609756097564
54,0.0,0.1324503311258277,0.16556291390728392,0.19867549668874304,0.2847682119205303,0.33774834437086143,0.6953642384105948,0.8609271523178786,1.0,0.39735099337748314
55,0.0,0.13157894736842105,0.23026315789473759,0.23026315789473759,0.2894736842105263,0.34868421052631504,0.7828947368421031,0.868421052631579,1.0,0.4078947368421038
56,0.0,0.16842105263157875,0.326315789473685,0.34736842105263466,0.44210526315789656,0.5157894736842135,0.6947368421052647,0.8947368421052656,1.0,0.5789473684210531
57,0.0,0.06040268456375769,0.16107382550335583,0.22147651006711352,0.27516778523489877,0.3288590604026841,0.6912751677852361,0.8590604026845644,1.0,0.3892617449664447
58,0.0,0.14705882352940897,0.1985294117647041,0.1985294117647041,0.24264705882352938,0.30147058823529427,0.6985294117647057,0.8823529411764702,1.0,0.35294117647058615
59,0.0,0.17391304347826136,0.26086956521739013,0.26086956521739013,0.3391304347826106,0.41739130434782346,0.5913043478260886,0.8000000000000023,1.0,0.49565217391304395
60,0.0,0.008620689655175318,0.13793103448275915,0.43965517241379576,0.517241379310343,0.5862068965517225,0.6465517241379345,0.8620689655172409,1.0,0.6637931034482775
61,0.0,0.07258064516129274,0.1935483870967735,0.3951612903225819,0.4758064516129024,0.5806451612903205,0.6854838709677386,0.8064516129032265,1.0,0.6370967741935506
62,0.0,0.005988023952097783,0.09580838323353262,0.30538922155688586,0.3532934131736522,0.4431137724550923,0.802395209580837,0.9041916167664674,1.0,0.48502994011976086
63,0.0,0.11486486486486747,0.21621621621621687,0.22297297297297589,0.2770270270270301,0.33783783783783733,0.7229729729729759,0.8716216216216265,1.0,0.39864864864865057
64,0.0,0.18018018018017673,0.31531531531530926,0.31531531531530926,0.39639639639639357,0.46846846846846585,0.5585585585585542,0.7837837837837831,1.0,0.5495495495495502
65,0.0,0.09933774834436887,0.19867549668874362,0.2185430463576127,0.27814569536423756,0.3311258278145688,0.7218543046357625,0.8543046357615877,1.0,0.3774834437086064
66,0.0,0.0795454545454546,0.2272727272727274,0.2272727272727274,0.306818181818182,0.40909090909090934,0.5454545454545457,0.7954545454545453,1.0,0.47727272727272757
67,0.0,0.1320754716981132,0.1320754716981132,0.1509433962264151,0.39622641509433965,0.8490566037735849,0.49056603773584906,0.8490566037735849,1.0,0.8490566037735849
68,0.0,0.12987012987012997,0.22727272727272743,0.25974025974025994,0.3116883116883119,0.46103896103896136,0.779220779220779,0.844155844155844,1.0,0.46753246753246785
69,0.0,0.14814814814814828,0.25925925925925863,0.318518518518518,0.37777777777777727,0.4444444444444448,0.7481481481481479,0.8814814814814814,1.0,0.4962962962962959
70,0.0,0.09271523178807954,0.17880794701986694,0.2781456953642386,0.35761589403973537,0.47682119205298046,0.8344370860927158,1.0,1.0,0.5364238410596023
71,0.0,0.16949152542372725,0.18644067796610017,0.18644067796610017,0.26271186440677924,0.46610169491525416,0.7118644067796605,0.7966101694915251,1.0,0.46610169491525416
72,0.0,0.07586206896551653,0.13793103448275873,0.2965517241379305,0.35862068965517113,0.45517241379310225,0.8275862068965508,1.0,1.0,0.5172413793103444
73,0.0,0.054263565891473776,0.16279069767441962,0.2325581395348839,0.33333333333333276,0.4263565891472863,0.7984496124031006,0.8604651162790696,1.0,0.4961240310077524
74,0.0,0.046511627906976806,0.08720930232558215,0.30232558139534793,0.37790697674418716,0.41860465116278994,0.7267441860465133,0.8720930232558151,1.0,0.4709302325581408
75,0.0,0.19607843137254943,0.26470588235293846,0.26470588235293846,0.3431372549019583,0.41176470588235164,0.705882352941178,0.8235294117647077,1.0,0.49999999999999784
76,0.0,0.13513513513513514,0.23648648648648724,0.24324324324324326,0.3040540540540563,0.42567567567567643,0.7297297297297297,0.8851351351351359,1.0,0.4864864864864865
77,0.0,0.10791366906474892,0.21582733812949784,0.23021582733812931,0.28776978417266164,0.3525179856115097,0.7697841726618707,0.9208633093525173,1.0,0.417266187050361
78,0.0,0.22471910112359578,0.3370786516853962,0.3370786516853962,0.4831460674157322,0.7528089887640471,0.7640449438202257,0.853932584269664,1.0,0.853932584269664
79,0.0,0.04733727810650891,0.13609467455621377,0.3431952662721909,0.3846153846153842,0.4615384615384632,0.775147928994084,0.8757396449704148,1.0,0.49112426035503054
80,0.0,0.11409395973154296,0.2080536912751657,0.25503355704697855,0.3087248322147638,0.4697986577181197,0.7181208053691258,0.8859060402684541,1.0,0.5302013422818773
81,0.0,0.13605442176870738,0.23809523809523866,0.2517006802721109,0.3061224489795939,0.36734693877551144,0.802721088435375,0.9047619047619033,1.0,0.4013605442176875
82,0.0,0.1327433628318556,0.2566371681415922,0.2566371681415922,0.3362831858407063,0.4159292035398205,0.6283185840707941,0.8495575221238947,1.0,0.44247787610619316
83,0.0,0.11235955056179789,0.14606741573033602,0.36516853932584253,0.415730337078651,0.47191011235954866,0.8089887640449424,0.8651685393258425,1.0,0.5056179775280892
84,0.0,0.06993006993007143,0.174825174825177,0.24475524475524535,0.29370629370629503,0.40559440559440685,0.6993006993006987,0.8741258741258727,1.0,0.46853146853146893
85,0.0,0.12162162162162012,0.22297297297297222,0.24324324324324326,0.3040540540540533,0.36486486486486336,0.7094594594594588,0.8783783783783768,1.0,0.4121621621621614
86,0.0,0.09090909090909034,0.19580419580419625,0.21678321678321807,0.27972027972028035,0.34265734265734266,0.7692307692307695,0.8671328671328692,1.0,0.40559440559440496
87,0.0,0.09722222222222376,0.20138888888888812,0.2291666666666659,0.28472222222222143,0.34722222222222376,0.7013888888888882,0.8749999999999984,1.0,0.409722222222223
88,0.0,0.08181818181818097,0.1727272727272741,0.2909090909090915,0.3545454545454563,0.418181818181817,0.7454545454545449,0.8272727272727259,1.0,0.499999999999998
89,0.0,0.09259259259259466,0.23148148148148046,0.4074074074074074,0.5185185185185185,0.5833333333333344,0.8425925925925896,0.9166666666666636,1.0,0.6666666666666625
90,0.0,0.1111111111111111,0.21527777777777546,0.229166666666669,0.29166666666666513,0.35416666666666746,0.7222222222222222,0.8819444444444421,1.0,0.4166666666666636
91,0.0,0.1342281879194602,0.2348993288590613,0.24832214765100616,0.3087248322147609,0.3691275167785215,0.7785234899328836,0.8791946308724846,1.0,0.4295302013422822
92,0.0,0.10344827586207256,0.20689655172413898,0.2275862068965535,0.2827586206896568,0.35172413793103446,0.7586206896551722,0.8758620689655129,1.0,0.41379310344827797
93,0.0,0.11643835616437993,0.21917808219178114,0.2397260273972614,0.2945205479452067,0.3561643835616413,0.7602739726027385,0.8767123287671246,1.0,0.4178082191780821
94,0.0,0.11643835616438603,0.21917808219178114,0.2397260273972614,0.2945205479452067,0.3561643835616474,0.6986301369863039,0.8698630136986292,1.0,0.4178082191780821
95,0.0,0.11034482758620665,0.2137931034482792,0.2413793103448278,0.2965517241379311,0.35862068965517463,0.7172413793103432,0.8827586206896532,1.0,0.4206896551724121
96,0.0,0.13513513513513253,0.23648648648648796,0.25,0.3040540540540542,0.36486486486486147,0.7229729729729699,0.8851351351351325,1.0,0.4256756756756747
97,0.0,0.07909604519774019,0.16384180790960468,0.2768361581920907,0.3446327683615819,0.4632768361581922,0.7288135593220343,0.8644067796610169,1.0,0.5141242937853109
98,0.0,0.09550561797752821,0.17977528089887662,0.2808988764044941,0.35393258426966273,0.47191011235955055,0.7247191011235958,0.8651685393258431,1.0,0.5224719101123596
99,0.0,0.11428571428571443,0.20000000000000026,0.27428571428571463,0.3371428571428576,0.4628571428571428,0.7200000000000003,0.8628571428571427,1.0,0.5142857142857143
100,0.0,0.10555555555555507,0.18888888888888913,0.2722222222222219,0.3444444444444449,0.46666666666666723,0.7388888888888892,0.8666666666666665,1.0,0.5166666666666667
101,0.0,0.11494252873563106,0.18390804597701046,0.2586206896551721,0.3333333333333325,0.45402298850574707,0.7356321839080456,0.8620689655172412,1.0,0.505747126436781
102,0.0,0.11049723756906084,0.19337016574585586,0.28729281767955817,0.3591160220994471,0.4751381215469616,0.7292817679558016,0.867403314917127,1.0,0.5248618784530383
103,0.0,0.05649717514124297,0.14124293785310807,0.29378531073446346,0.3559322033898301,0.47457627118644097,0.72316384180791,0.8644067796610169,1.0,0.525423728813559
104,0.0,0.08938547486033514,0.17318435754189995,0.296089385474862,0.35195530726257024,0.4692737430167595,0.7318435754189946,0.8715083798882676,1.0,0.5195530726256974
105,0.0,0.07821229050279449,0.16201117318435682,0.2793296089385486,0.35195530726257024,0.4692737430167595,0.7262569832402218,0.8659217877094972,1.0,0.5195530726256974
106,0.0,0.0662983425414365,0.14917127071823275,0.29281767955801064,0.34806629834254227,0.4640883977900555,0.7458563535911589,0.867403314917127,1.0,0.5138121546961323
107,0.0,0.11299435028248594,0.19774011299435104,0.28813559322033977,0.361581920903955,0.47457627118644097,0.72316384180791,0.8644067796610169,1.0,0.5254237288135616
108,0.0,0.10989010989011003,0.19230769230769315,0.29120879120879095,0.35164835164835206,0.467032967032967,0.7307692307692311,0.8681318681318679,1.0,0.5164835164835159
109,0.0,0.12658227848101247,0.16455696202531764,0.31012658227848267,0.35443037974683494,0.3924050632911401,0.6898734177215173,0.848101265822785,1.0,0.449367088607595
110,0.0,0.09032258064516005,0.1612903225806448,0.1612903225806448,0.18709677419354806,0.3354838709677427,0.6838709677419356,0.8451612903225804,1.0,0.3935483870967743
111,0.0,0.08387096774193495,0.18064516129032296,0.18709677419354806,0.21290322580645135,0.354838709677418,0.6838709677419356,0.8451612903225804,1.0,0.4129032258064496
112,0.0,0.11038961038960694,0.19480519480519076,0.34415584415584394,0.40259740259739885,0.42857142857142777,0.6818181818181792,0.8441558441558439,1.0,0.4870129870129827
113,0.0,0.1342281879194602,0.2348993288590613,0.3087248322147668,0.3892617449664418,0.41610738255033736,0.6711409395973129,0.8389261744966442,1.0,0.4765100671140921
114,0.0,0.12738853503184722,0.22292993630573263,0.31210191082802535,0.32484076433121006,0.41401273885350315,0.6878980891719747,0.8471337579617834,1.0,0.4713375796178344
115,0.0,0.12030075187969852,0.12030075187969852,0.12781954887217972,0.22556390977443544,0.40601503759398444,0.8120300751879698,1.0,1.0,0.40601503759398444
116,0.0,0.11173184357541852,0.19553072625698287,0.2290502793296086,0.29050279329608913,0.42458100558659206,0.7988826815642456,0.865921787709497,1.0,0.47486033519553006
117,0.0,0.11428571428571435,0.18857142857142806,0.33714285714285674,0.4114285714285704,0.5485714285714276,0.8571428571428564,1.0,1.0,0.5485714285714276
118,0.0,0.07857142857142936,0.18571428571428572,0.32857142857142857,0.3928571428571436,0.5642857142857151,0.7285714285714285,0.892857142857142,1.0,0.6285714285714286
119,0.0,0.13333333333333305,0.22666666666666646,0.2399999999999998,0.32666666666666655,0.48666666666666664,0.6933333333333331,0.8399999999999999,1.0,0.48666666666666664
120,0.0,0.14388489208633104,0.25179856115107935,0.20143884892086347,0.22302158273381312,0.3956834532374104,0.8345323741007193,0.9280575539568344,1.0,0.46043165467625935
121,0.0,0.09352517985611518,0.1654676258992807,0.1654676258992807,0.2589928057553959,0.4316546762589932,0.8201438848920862,1.0,1.0,0.4316546762589932
122,0.0,0.1492537313432837,0.23880597014925392,0.23880597014925392,0.26865671641791067,0.44776119402985026,0.6940298507462684,0.8208955223880595,1.0,0.514925373134328
123,0.0,0.10967741935483886,0.19354838709677447,0.19354838709677447,0.23225806451612938,0.3354838709677424,0.6838709677419358,0.8451612903225811,1.0,0.39354838709677475
124,0.0,0.010752688172044217,0.17204301075268838,0.5483870967741931,0.6559139784946233,0.9139784946236558,0.903225806451614,0.9139784946236558,1.0,0.9139784946236558
125,0.0,0.27397260273972646,0.27397260273972646,0.2876712328767143,0.46575342465753494,0.7945205479452067,0.7808219178082219,0.7945205479452067,1.0,0.7945205479452067
126,0.0,0.010416666666667823,0.16666666666666666,0.5312500000000011,0.6458333333333334,0.6979166666666679,0.5312500000000011,0.7916666666666666,1.0,0.7916666666666666
127,0.0,0.2,0.2,0.21250000000000138,0.375,0.625,0.625,0.7,1.0,0.7
128,0.0,0.11016949152542299,0.2372881355932208,0.3389830508474583,0.44915254237288127,0.5423728813559332,0.5847457627118645,0.7966101694915251,1.0,0.6186440677966104
129,0.0,0.1360544217687078,0.23809523809523636,0.24489795918367402,0.3333333333333333,0.42857142857142727,0.6666666666666666,0.8367346938775506,1.0,0.48979591836734804
130,0.0,0.030487804878048187,0.12195121951219545,0.32317073170731725,0.33536585365853544,0.48170731707317,0.8109756097560991,0.9634146341463428,1.0,0.53658536585366
131,0.0,0.13592233009708507,0.281553398058251,0.3689320388349489,0.40776699029125957,0.6407766990291234,0.6990291262135915,0.7961165048543659,1.0,0.6407766990291234
132,0.0,0.13768115942028766,0.13768115942028766,0.14492753623188429,0.2391304347826083,0.3478260869565223,0.6811594202898545,0.8623188405797091,1.0,0.4130434782608694
133,0.0,0.24691358024691393,0.24691358024691393,0.25925925925925825,0.4197530864197509,0.6049382716049377,0.6049382716049377,0.7407407407407418,1.0,0.7160493827160477
134,0.0,0.0072992700729918964,0.1167883211678833,0.37226277372262884,0.4671532846715332,0.5255474452554749,0.7153284671532836,0.8248175182481751,1.0,0.5912408759124085
135,0.0,0.18018018018018073,0.31531531531531326,0.4504504504504498,0.5675675675675663,0.7837837837837831,0.7747747747747751,0.7837837837837831,1.0,0.7837837837837831
136,0.0,0.006666666666665937,0.10666666666666683,0.3399999999999983,0.4266666666666673,0.47333333333333183,0.8333333333333338,1.0,1.0,0.5333333333333341
137,0.0,0.07831325301204826,0.1686746987951809,0.2710843373493975,0.3493975903614458,0.493975903614458,0.7710843373493977,0.8554216867469882,1.0,0.5481927710843376
138,0.0,0.08433734939759041,0.174698795180723,0.2771084337349396,0.3554216867469879,0.5,0.7771084337349397,0.8554216867469878,1.0,0.5180722891566265
139,0.0,0.07975460122699392,0.1717791411042946,0.2822085889570554,0.3619631901840493,0.5092024539877297,0.7914110429447851,0.8588957055214723,1.0,0.5644171779141102
140,0.0,0.06918238993710697,0.16352201257861645,0.2830188679245285,0.36477987421383673,0.5157232704402512,0.6918238993710689,0.8490566037735848,1.0,0.5157232704402512
141,0.0,0.13513513513513523,0.23648648648648665,0.3581081081081084,0.4459459459459463,0.6081081081081078,0.716216216216216,0.8378378378378377,1.0,0.6081081081081078
142,0.0,0.11904761904761912,0.20833333333333348,0.41666666666666696,0.4940476190476194,0.6249999999999998,0.732142857142857,0.8571428571428571,1.0,0.6488095238095236
143,0.0,0.11494252873563233,0.20114942528735594,0.3850574712643677,0.45977011494252934,0.5977011494252881,0.7183908045977014,0.8620689655172424,1.0,0.6321839080459778
144,0.0,0.1307189542483663,0.2287581699346403,0.38562091503267987,0.4705882352941172,0.6274509803921567,0.7385620915032689,0.8431372549019619,1.0,0.6601307189542491
145,0.0,0.10975609756097576,0.1707317073170734,0.4146341463414626,0.49390243902439024,0.6402439024390246,0.7378048780487808,0.8536585365853656,1.0,0.6402439024390246
146,0.0,0.11585365853658484,0.16463414634146295,0.42073170731707304,0.49999999999999933,0.6463414634146337,0.7256097560975613,0.8536585365853656,1.0,0.6463414634146337
147,0.0,0.11299435028248608,0.19774011299435001,0.39548022598870003,0.4689265536723166,0.6045197740113,0.7288135593220346,0.864406779661018,1.0,0.6384180790960458
148,0.0,0.1290322580645162,0.22580645161290266,0.3806451612903221,0.464516129032257,0.6193548387096764,0.7419354838709675,0.8451612903225806,1.0,0.6193548387096764
149,0.0,0.14084507042253544,0.24647887323943624,0.4084507042253512,0.5,0.6690140845070425,0.7746478873239433,0.9225352112676063,1.0,0.6690140845070425
150,0.0,0.05714285714285714,0.16428571428571348,0.3357142857142849,0.42857142857142855,0.5857142857142857,0.7071428571428563,0.8499999999999992,1.0,0.6499999999999992
151,0.0,0.12422360248447196,0.21739130434782664,0.4223602484472033,0.5031055900621122,0.6521739130434785,0.7515527950310561,0.8509316770186336,1.0,0.6521739130434785
152,0.0,0.06521739130434713,0.17391304347826114,0.3478260869565223,0.4420289855072463,0.6159420289855074,0.7608695652173917,0.9420289855072462,1.0,0.6594202898550711
153,0.0,0.11594202898550743,0.22463768115942145,0.36956521739130577,0.4637681159420297,0.6376811594202909,0.7608695652173917,0.891304347826086,1.0,0.6376811594202909
154,0.0,0.11904761904761936,0.17857142857142771,0.41666666666666646,0.49404761904761835,0.6369047619047616,0.7321428571428571,0.8571428571428568,1.0,0.6845238095238093
155,0.0,0.055944055944056076,0.160839160839162,0.3286713286713302,0.4195804195804206,0.5804195804195825,0.6923076923076947,0.8391608391608412,1.0,0.6293706293706293
156,0.0,0.13333333333333353,0.23333333333333145,0.4199999999999984,0.5066666666666674,0.6666666666666676,0.7733333333333344,0.8866666666666673,1.0,0.6666666666666676
157,0.0,0.09770114942528685,0.18390804597701174,0.310344827586206,0.38505747126436896,0.5172413793103442,0.7183908045977014,0.8620689655172412,1.0,0.5632183908045971
158,0.0,0.1418439716312058,0.24822695035461093,0.4113475177304984,0.5035460992907813,0.6737588652482283,0.8014184397163119,0.9290780141843987,1.0,0.6737588652482283
159,0.0,0.10000000000000159,0.20714285714285635,0.3785714285714278,0.47142857142857303,0.6357142857142849,0.7499999999999992,0.8857142857142857,1.0,0.6785714285714294
160,0.0,0.07103825136611974,0.1530054644808746,0.278688524590165,0.34972677595628476,0.4808743169398916,0.7322404371584701,0.8688524590163932,1.0,0.5300546448087435
161,0.0,0.1388888888888889,0.24305555555555633,0.39583333333333254,0.48611111111111266,0.6527777777777793,0.7708333333333341,0.8958333333333326,1.0,0.6527777777777793
162,0.0,0.07909604519774141,0.16384180790960398,0.29378531073446346,0.3672316384180787,0.5028248587570618,0.7796610169491518,0.8644067796610169,1.0,0.5028248587570618
163,0.0,0.07936507936508,0.15343915343915293,0.26455026455026587,0.3333333333333341,0.45502645502645644,0.7407407407407411,0.8730158730158729,1.0,0.5026455026455036
164,0.0,0.1724137931034483,0.1724137931034483,0.18103448275861972,0.29310344827586016,0.4999999999999981,0.6465517241379319,0.8189655172413802,1.0,0.4999999999999981
165,0.0,0.13178294573643634,0.24806201550387533,0.4418604651162805,0.542635658914729,0.7286821705426355,0.7286821705426355,0.8914728682170528,1.0,0.798449612403103
166,0.0,0.005988023952092496,0.047904191616761245,0.3053892215568822,0.3832335329341272,0.5269461077844269,0.8742514970059885,1.0,1.0,0.5269461077844269
167,0.0,0.13138686131386754,0.13138686131386754,0.1386861313868562,0.23357664233576736,0.4087591240875929,0.6423357664233538,0.8248175182481745,1.0,0.4087591240875929
168,0.0,0.2816901408450709,0.2816901408450709,0.29577464788732283,0.47887323943662047,0.8169014084507024,0.8028169014084504,0.8169014084507024,1.0,0.8169014084507024
169,0.0,0.00884955752212292,0.14159292035398244,0.45132743362832,0.5663716814159298,0.6814159292035395,0.6814159292035395,0.7876106194690263,1.0,0.7610619469026536
170,0.0,0.12820512820512928,0.22222222222222054,0.46153846153846007,0.5726495726495742,0.6581196581196578,0.6581196581196578,0.7948717948717947,1.0,0.7350427350427339
171,0.0,0.18181818181818146,0.2727272727272742,0.4363636363636355,0.5545454545454565,0.6363636363636371,0.6363636363636371,0.7818181818181823,1.0,0.7181818181818177
172,0.0,0.027932960893854112,0.07262569832402169,0.2960893854748595,0.32960893854748646,0.4245810055865919,0.7262569832402218,0.8659217877094972,1.0,0.47486033519552984
173,0.0,0.2439024390243909,0.2439024390243909,0.2560975609756091,0.41463414634146184,0.7073170731707309,0.6951219512195127,0.7073170731707309,1.0,0.7073170731707309
174,0.0,0.13605442176870738,0.23809523809523866,0.3129251700680285,0.38095238095238065,0.46258503401360507,0.8299319727891135,1.0,1.0,0.5238095238095226
175,0.0,0.13793103448275873,0.1586206896551733,0.1586206896551733,0.2482758620689657,0.3241379310344838,0.6620689655172419,0.8344827586206895,1.0,0.3862068965517244
176,0.0,0.10416666666666667,0.18229166666666724,0.3593750000000017,0.3958333333333333,0.4895833333333345,0.7708333333333334,0.9010416666666661,1.0,0.5260416666666684
177,0.0,0.14492753623188429,0.18115942028985457,0.1956521739130446,0.28985507246376857,0.405797101449276,0.6449275362318843,0.8260869565217388,1.0,0.4710144927536231
178,0.0,0.24390243902438957,0.24390243902438957,0.25609756097561315,0.414634146341465,0.7073170731707324,0.6951219512195089,0.7073170731707324,1.0,0.7073170731707324
179,0.0,0.15748031496063034,0.15748031496063034,0.16535433070866098,0.26771653543306984,0.3779527559055128,0.803149606299213,1.0,1.0,0.44094488188976494
180,0.0,0.1047120418848167,0.18324607329842746,0.36649214659685725,0.4293193717277496,0.5026178010471178,0.8376963350785313,0.9005235602094236,1.0,0.534031413612564
181,0.0,0.08441558441558382,0.16233766233765898,0.19480519480519076,0.27922077922078037,0.3571428571428555,0.6818181818181792,0.8441558441558439,1.0,0.3896103896103873
182,0.0,0.13698630136986018,0.13698630136986018,0.14383561643835563,0.23287671232876594,0.39726027397260183,0.6780821917808176,0.849315068493149,1.0,0.39726027397260183
183,0.0,0.16393442622951093,0.28688524590163866,0.3442622950819708,0.4426229508196715,0.5245901639344234,0.6803278688524562,0.8032786885245913,1.0,0.5983606557377044
184,0.0,0.005847953216371049,0.09356725146198873,0.2982456140350897,0.36842105263157865,0.4385964912280728,0.7134502923976628,0.8596491228070169,1.0,0.49122807017543824
185,0.0,0.16666666666666297,0.2916666666666676,0.366666666666663,0.47500000000000275,0.5749999999999991,0.6833333333333315,0.8916666666666676,1.0,0.6500000000000018
186,0.0,0.11834319526627231,0.20710059171597653,0.4142011834319527,0.46745562130177526,0.6094674556213017,0.7100591715976332,0.8579881656804735,1.0,0.6627218934911242
187,0.0,0.12048192771084346,0.21084337349397606,0.40361445783132555,0.4638554216867473,0.6084337349397595,0.7048192771084342,0.8554216867469878,1.0,0.662650602409639
188,0.0,0.12500000000000008,0.21875000000000014,0.38125000000000026,0.4437500000000003,0.5937500000000004,0.6937499999999998,0.8499999999999999,1.0,0.6500000000000005
189,0.0,0.10999999999999889,0.26,0.20999999999999888,0.24,0.3699999999999989,0.5099999999999989,0.76,1.0,0.46
190,0.0,0.13445378151260517,0.1764705882352952,0.1764705882352952,0.26050420168067345,0.4621848739495812,0.5882352941176476,0.7983193277310942,1.0,0.5378151260504207
191,0.0,0.034246575342465044,0.1369863013698617,0.3219178082191778,0.39041095890410943,0.5547945205479453,0.6643835616438358,0.8356164383561642,1.0,0.616438356164383
192,0.0,0.0915492957746488,0.16197183098591653,0.30281690140845197,0.3732394366197197,0.5422535211267622,0.6549295774647905,0.8309859154929575,1.0,0.6056338028169024
193,0.0,0.08275862068965524,0.18620689655172198,0.3241379310344807,0.3862068965517244,0.5517241379310349,0.6620689655172419,0.8344827586206895,1.0,0.6137931034482755
194,0.0,0.15573770491803035,0.15573770491803035,0.1639344262295085,0.2704918032786881,0.4672131147540983,0.5983606557377051,0.8032786885245898,1.0,0.5409836065573762
195,0.0,0.06849315068493292,0.17123287671233078,0.3287671232876707,0.38356164383561586,0.5479452054794512,0.6643835616438338,0.8356164383561646,1.0,0.6095890410958887
196,0.0,0.07051282051281858,0.14743589743589572,0.3717948717948714,0.42948717948717857,0.5833333333333328,0.6858974358974357,0.8461538461538457,1.0,0.64102564102564
197,0.0,0.1322314049586778,0.1900826446280966,0.1900826446280966,0.2644628099173556,0.46280991735536864,0.5950413223140465,0.8016528925619832,1.0,0.5371900826446276
198,0.0,0.1388888888888889,0.18750000000000078,0.18750000000000078,0.26388888888888734,0.3680555555555548,0.8611111111111112,0.9166666666666666,1.0,0.430555555555554
199,0.0,0.13475177304964628,0.2411347517730514,0.2411347517730514,0.29787234042553373,0.3829787234042572,0.751773049645389,0.8297872340425531,1.0,0.446808510638299
200,0.0,0.09734513274336352,0.16814159292035447,0.16814159292035447,0.23893805309734542,0.45132743362831823,0.5929203539823001,0.7876106194690272,1.0,0.530973451327436
201,0.0,0.1869158878504645,0.28037383177569675,0.28037383177569675,0.3551401869158842,0.4205607476635534,0.654205607476634,0.8878504672897229,1.0,0.49532710280374087
202,0.0,0.08609271523178814,0.18543046357615908,0.28476821192052965,0.3509933774834436,0.4039735099337748,0.675496688741722,0.8410596026490065,1.0,0.43708609271523174
203,0.0,0.13157894736842118,0.23026315789473673,0.34210526315789475,0.3947368421052632,0.4473684210526317,0.7236842105263163,0.888157894736842,1.0,0.4868421052631581
204,0.0,0.12578616352201266,0.22012578616352216,0.30817610062893036,0.3710691823899367,0.4213836477987417,0.6918238993710689,0.8490566037735848,1.0,0.4528301886792449
205,0.0,0.07333333333333339,0.17333333333333345,0.27333333333333354,0.34000000000000025,0.39333333333333365,0.6733333333333331,0.8399999999999999,1.0,0.42666666666666697
206,0.0,0.07947019867549675,0.1788079470198684,0.28476821192053076,0.3443708609271526,0.4039735099337744,0.6754966887417223,0.8410596026490065,1.0,0.43708609271523213
207,0.0,0.12658227848101267,0.22151898734177286,0.31645569620253167,0.379746835443038,0.43037974683544306,0.6898734177215183,0.8481012658227848,1.0,0.48734177215189944
208,0.0,0.10457516339869159,0.20261437908496704,0.30065359477124104,0.3660130718954242,0.4183006535947707,0.6797385620915033,0.8431372549019619,1.0,0.444444444444444
209,0.0,0.12578616352201266,0.22012578616352285,0.31446540880503165,0.377358490566038,0.4213836477987417,0.6918238993710697,0.8490566037735848,1.0,0.47798742138364814
210,0.0,0.10389610389610404,0.20129870129870087,0.29870129870129913,0.36363636363636415,0.41558441558441617,0.6818181818181821,0.8441558441558439,1.0,0.448051948051948
211,0.0,0.12578616352201283,0.22012578616352318,0.3144654088050307,0.37735849056603854,0.42767295597484367,0.6918238993710693,0.8490566037735846,1.0,0.48427672955974876
212,0.0,0.12422360248447213,0.21739130434782417,0.31055900621117893,0.3726708074534164,0.42236024844720527,0.6956521739130439,0.8509316770186335,1.0,0.4534161490683226
213,0.0,0.10897435897435857,0.2051282051282057,0.30128205128205,0.35897435897436,0.41666666666666713,0.6858974358974357,0.8461538461538457,1.0,0.44230769230769285
214,0.0,0.12658227848101283,0.22151898734177317,0.32278481012658344,0.3797468354430385,0.43037974683544367,0.696202531645572,0.8544303797468373,1.0,0.46202531645569617
215,0.0,0.0921052631578962,0.1907894736842098,0.2960526315789466,0.3552631578947354,0.4078947368421038,0.6776315789473691,0.8421052631578947,1.0,0.46052631578947223
216,0.0,0.07999999999999988,0.18000000000000047,0.28666666666666696,0.35333333333333505,0.40666666666666534,0.6733333333333316,0.8400000000000002,1.0,0.46666666666666745
217,0.0,0.09933774834437181,0.19867549668874068,0.2980132450331125,0.364238410596028,0.41721854304635925,0.6887417218543062,0.8543046357615905,1.0,0.45033112582781554
218,0.0,0.12987012987013005,0.22727272727272543,0.32467532467532373,0.3896103896103902,0.4415584415584422,0.7142857142857139,0.8766233766233757,1.0,0.5
219,0.0,0.07638888888888966,0.1805555555555571,0.28472222222222454,0.34722222222222376,0.409722222222223,0.659722222222223,0.8333333333333334,1.0,0.4375000000000008
220,0.0,0.13698630136986625,0.20547945205479634,0.27397260273972646,0.3424657534246565,0.39726027397260183,0.6780821917808237,0.849315068493155,1.0,0.45890410958904254
221,0.0,0.07894736842105556,0.17763157894736914,0.282894736842106,0.34868421052631504,0.40131578947368346,0.677631578947372,0.8421052631578947,1.0,0.434210526315788
222,0.0,0.10897435897436142,0.2051282051282057,0.30128205128205,0.3653846153846186,0.41666666666666996,0.6858974358974386,0.8461538461538457,1.0,0.4487179487179514
223,0.0,0.12499999999999722,0.2187500000000007,0.32499999999999724,0.3812499999999993,0.4312499999999993,0.6937499999999979,0.85,1.0,0.46249999999999863
224,0.0,0.10389610389610401,0.20129870129870114,0.3051948051948052,0.37012987012987014,0.42207792207792216,0.6818181818181819,0.8441558441558443,1.0,0.4805194805194807
225,0.0,0.10596026490066233,0.20529801324503327,0.31125827814569484,0.37086092715231744,0.5231788079470195,0.6754966887417216,0.8410596026490065,1.0,0.582781456953642
226,0.0,0.11538461538461546,0.2115384615384617,0.3141025641025643,0.3717948717948721,0.4230769230769234,0.6858974358974357,0.846153846153846,1.0,0.47435897435897467
227,0.0,0.08053691275167792,0.1812080536912753,0.28859060402684583,0.3489932885906043,0.40268456375838957,0.6912751677852347,0.8590604026845644,1.0,0.46308724832214726
228,0.0,0.12658227848101283,0.22151898734177175,0.32278481012658206,0.3797468354430385,0.43670886075949356,0.6898734177215192,0.8481012658227846,1.0,0.46202531645569617
229,0.0,0.12820512820512697,0.22435897435897398,0.32692307692307665,0.39102564102564086,0.44230769230769224,0.6858974358974361,0.8461538461538459,1.0,0.4679487179487179
230,0.0,0.0945945945945946,0.1959459459459467,0.2972972972972973,0.36486486486486486,0.4189189189189189,0.6689189189189182,0.8378378378378378,1.0,0.47297297297297297
231,0.0,0.09740259740259682,0.1948051948051951,0.2922077922077919,0.35064935064935115,0.4025974025974032,0.6818181818181821,0.8441558441558439,1.0,0.435064935064935
232,0.0,0.11464968152866109,0.21019108280254722,0.31210191082802496,0.36942675159235555,0.42038216560509445,0.687898089171975,0.8471337579617834,1.0,0.45859872611465
233,0.0,0.12738853503184722,0.22292993630573335,0.3184713375796195,0.38216560509554165,0.43312101910828055,0.6942675159235666,0.8535031847133778,1.0,0.45859872611465
234,0.0,0.12658227848101247,0.22151898734177256,0.30379746835442994,0.3670886075949376,0.41139240506329267,0.6898734177215173,0.848101265822785,1.0,0.45569620253164494
235,0.0,0.08552631578947295,0.18421052631578946,0.2894736842105263,0.34868421052631504,0.40131578947368346,0.6776315789473691,0.8421052631578947,1.0,0.434210526315788
236,0.0,0.12738853503184722,0.22292993630573052,0.31847133757961665,0.38216560509554165,0.43312101910828055,0.7133757961783445,0.8726114649681528,1.0,0.4904458598726111
237,0.0,0.08552631578947295,0.18421052631578946,0.2960526315789466,0.3552631578947383,0.4078947368421038,0.6776315789473691,0.8421052631578947,1.0,0.44078947368421123
238,0.0,0.12658227848101283,0.22151898734177317,0.3101265822784807,0.37341772151898855,0.4240506329113937,0.6898734177215192,0.8481012658227846,1.0,0.4810126582278488
239,0.0,0.1153846153846143,0.21153846153846143,0.31410256410256426,0.3717948717948714,0.42307692307692285,0.6858974358974357,0.8461538461538457,1.0,0.4551282051282043
240,0.0,0.09150326797385773,0.18954248366013304,0.2941176470588259,0.35947712418300753,0.411764705882354,0.6797385620915037,0.8431372549019607,1.0,0.470588235294118
241,0.0,0.11538461538461647,0.21153846153846306,0.3141025641025653,0.37179487179487214,0.4230769230769233,0.6858974358974347,0.8461538461538466,1.0,0.45512820512820457
242,0.0,0.12500000000000278,0.2187500000000007,0.3187500000000007,0.3812499999999993,0.4312499999999993,0.6937500000000034,0.85,1.0,0.4562500000000021
243,0.0,0.1265822784810153,0.22151898734177256,0.31645569620253544,0.3797468354430403,0.4303797468354452,0.69620253164557,0.8544303797468378,1.0,0.46202531645569767
244,0.0,0.12025316455696256,0.2151898734177198,0.3164556962025298,0.3734177215189875,0.4240506329113925,0.6898734177215173,0.848101265822785,1.0,0.45569620253164494
245,0.0,0.006896551724137941,0.08275862068965453,0.35172413793103424,0.44137931034482747,0.5724137931034476,0.6620689655172416,0.8344827586206894,1.0,0.6344827586206898
246,0.0,0.020833333333332593,0.1250000000000002,0.3472222222222212,0.4374999999999999,0.5694444444444438,0.6597222222222224,0.833333333333333,1.0,0.6319444444444446
247,0.0,0.05925925925925921,0.15555555555555461,0.3185185185185191,0.4000000000000013,0.5407407407407395,0.6370370370370382,0.8222222222222224,1.0,0.6074074074074085
248,0.0,0.26666666666666783,0.34666666666666524,0.34666666666666524,0.5066666666666659,0.5733333333333315,0.34666666666666524,0.6799999999999986,1.0,0.6799999999999986
249,0.0,0.12269938650306773,0.21472392638036922,0.4294478527607357,0.509202453987729,0.6257668711656441,0.6993865030674847,0.8527607361963188,1.0,0.6809815950920239
250,0.0,0.16260162601626002,0.260162601626016,0.260162601626016,0.35772357723577203,0.51219512195122,0.6016260162601639,0.804878048780488,1.0,0.5853658536585361
251,0.0,0.053691275167785275,0.15436241610738044,0.3892617449664418,0.4697986577181197,0.5973154362416104,0.6711409395973129,0.8389261744966442,1.0,0.6577181208053682
252,0.0,0.17391304347826114,0.33333333333332904,0.33333333333332904,0.405797101449276,0.4927536231884034,0.4927536231884034,0.7971014492753588,1.0,0.594202898550724
253,0.0,0.1694915254237287,0.2966101694915254,0.3728813559322032,0.483050847457627,0.5338983050847457,0.6694915254237286,0.7966101694915253,1.0,0.6101694915254237
254,0.0,0.10810810810810818,0.310810810810811,0.310810810810811,0.3783783783783787,0.4594594594594598,0.4594594594594598,0.6756756756756754,1.0,0.5810810810810808
255,0.0,0.18461538461538476,0.41538461538461574,0.4307692307692311,0.5230769230769236,0.6307692307692313,0.6307692307692313,0.7846153846153853,1.0,0.7692307692307699
256,0.0,0.12658227848101283,0.21518987341772183,0.21518987341772183,0.31645569620253067,0.41772151898734095,0.41772151898734095,0.6962025316455692,1.0,0.5316455696202526
257,0.0,0.12000000000000009,0.22000000000000017,0.3000000000000002,0.38666666666666694,0.43999999999999956,0.7666666666666665,0.8533333333333333,1.0,0.4999999999999996
258,0.0,0.11304347826086968,0.24347826086956545,0.39130434782608736,0.504347826086957,0.5652173913043483,0.6434782608695658,0.8608695652173912,1.0,0.6434782608695658
259,0.0,0.24137931034482804,0.500000000000001,0.36206896551724205,0.44827586206896636,0.5689655172413804,0.5689655172413804,0.7931034482758635,1.0,0.7241379310344841
260,0.0,0.1568627450980392,0.27450980392156865,0.3627450980392146,0.49019607843137253,0.5588235294117636,0.5588235294117636,0.7647058823529411,1.0,0.6470588235294118
261,0.0,0.13157894736842124,0.23026315789473645,0.3092105263157892,0.3947368421052623,0.44078947368421045,0.7499999999999997,0.8750000000000006,1.0,0.4999999999999993
262,0.0,0.1610169491525433,0.288135593220339,0.39830508474576365,0.5084745762711864,0.5677966101694906,0.6440677966101694,0.8559322033898296,1.0,0.6440677966101694
263,0.0,0.17582417582417603,0.34065934065933984,0.48351648351648413,0.6263736263736259,0.7032967032967017,0.7032967032967017,0.8571428571428558,1.0,0.8021978021978019
264,0.0,0.1342281879194632,0.20134228187919478,0.32214765100671167,0.4093959731543635,0.5302013422818789,0.7382550335570476,0.9060402684563758,1.0,0.5906040268456381
265,0.0,0.1324503311258279,0.22516556291390746,0.2913907284768214,0.3774834437086103,0.43046357615894143,0.7814569536423847,0.9470198675496688,1.0,0.49006622516556325
266,0.0,0.12857142857142856,0.18571428571428572,0.3,0.34285714285714286,0.3928571428571436,0.7357142857142849,0.9071428571428564,1.0,0.45714285714285713
267,0.0,0.23255813953488372,0.38372093023255943,0.5000000000000013,0.6511627906976745,0.732558139534885,0.732558139534885,0.8837209302325582,1.0,0.8372093023255814
268,0.0,0.18556701030927814,0.34020618556701104,0.5257731958762892,0.5876288659793819,0.6597938144329889,0.6597938144329889,0.793814432989691,1.0,0.7525773195876292
269,0.0,0.1585365853658573,0.31707317073170915,0.42682926829268314,0.585365853658535,0.6707317073170727,0.6707317073170727,0.8414634146341481,1.0,0.7804878048780467
270,0.0,0.09917355371900835,0.1570247933884308,0.1570247933884308,0.21487603305785327,0.27272727272727204,0.6859504132231421,0.8925619834710752,1.0,0.3471074380165311
271,0.0,0.18518518518518517,0.3055555555555545,0.3796296296296286,0.49999999999999795,0.5648148148148138,0.5740740740740721,0.8055555555555566,1.0,0.6481481481481461
272,0.0,0.12987012987013005,0.22727272727272543,0.30519480519480346,0.3896103896103902,0.43506493506493354,0.7727272727272717,0.8896103896103902,1.0,0.4935064935064942
273,0.0,0.17821782178218062,0.32673267326732597,0.4257425742574273,0.5544554455445551,0.6237623762376255,0.6237623762376255,0.7623762376237622,1.0,0.7128712871287136
274,0.0,0.1266666666666676,0.21999999999999958,0.42000000000000137,0.5066666666666674,0.5866666666666676,0.7733333333333344,0.913333333333334,1.0,0.6400000000000009
275,0.0,0.22222222222222276,0.36666666666666636,0.5777777777777792,0.6222222222222238,0.700000000000003,0.700000000000003,0.8555555555555564,1.0,0.8000000000000019
276,0.0,0.18867924528301927,0.29245283018867674,0.3867924528301884,0.5094339622641499,0.5754716981132078,0.5943396226415075,0.8301886792452806,1.0,0.6603773584905653
277,0.0,0.14563106796116598,0.22330097087378725,0.3398058252427192,0.4466019417475745,0.5145631067961148,0.5533980582524255,0.7961165048543659,1.0,0.6019417475728127
278,0.0,0.18749999999999856,0.34375000000000044,0.531249999999999,0.5937500000000016,0.6666666666666697,0.6666666666666697,0.8020833333333359,1.0,0.7604166666666691
279,0.0,0.17777777777777734,0.31111111111111034,0.44444444444444337,0.5555555555555567,0.6222222222222207,0.6222222222222207,0.799999999999998,1.0,0.6999999999999995
280,0.0,0.1129032258064538,0.1774193548387121,0.1774193548387121,0.3225806451612915,0.43548387096774527,0.43548387096774527,0.6129032258064502,1.0,0.5806451612903246
281,0.0,0.12941176470588314,0.24705882352941472,0.38823529411764945,0.4941176470588242,0.5764705882352957,0.5764705882352957,0.7411764705882337,1.0,0.6823529411764705
282,0.0,0.1649484536082476,0.309278350515462,0.43298969072164767,0.5051546391752572,0.5773195876288666,0.5773195876288666,0.7525773195876286,1.0,0.6701030927835048
283,0.0,0.12698412698412676,0.22222222222222535,0.22222222222222535,0.38095238095238027,0.492063492063493,0.492063492063493,0.7460317460317465,1.0,0.6031746031746056
284,0.0,0.2439024390243909,0.39024390243902546,0.4390243902439036,0.5975609756097564,0.6829268292682945,0.6829268292682945,0.8536585365853655,1.0,0.7926829268292691
285,0.0,0.2127659574468033,0.287234042553192,0.36170212765957127,0.4999999999999953,0.5851063829787185,0.5851063829787185,0.7446808510638304,1.0,0.6808510638297857
286,0.0,0.15217391304347994,0.21739130434782986,0.42391304347826486,0.5652173913043499,0.6521739130434799,0.6521739130434799,0.82608695652174,1.0,0.706521739130435
287,0.0,0.1570247933884314,0.21487603305785039,0.3305785123966957,0.43801652892562093,0.49586776859503995,0.5950413223140523,0.8016528925619826,1.0,0.5454545454545461
288,0.0,0.17647058823530026,0.32352941176470845,0.3725490196078445,0.5,0.5882352941176502,0.5882352941176502,0.7647058823529417,1.0,0.6764705882352916
289,0.0,0.10884353741496657,0.21088435374149544,0.22448979591836477,0.299319727891155,0.3877551020408146,0.8231292517006809,0.9183673469387781,1.0,0.4489795918367356
290,0.0,0.18691588785046748,0.2897196261682246,0.3644859813084111,0.48598130841121495,0.5700934579439253,0.5700934579439253,0.7757009345794396,1.0,0.6542056074766357
291,0.0,0.10344827586206909,0.17931034482758643,0.24137931034482787,0.3310344827586207,0.37931034482758624,0.7379310344827591,0.9034482758620697,1.0,0.4413793103448277
292,0.0,0.17699115044247804,0.3008849557522117,0.3716814159292029,0.47787610619468973,0.539823008849557,0.6106194690265483,0.8318584070796459,1.0,0.6194690265486722
293,0.0,0.20000000000000023,0.36666666666666714,0.4999999999999994,0.644444444444444,0.7222222222222219,0.7222222222222219,0.8777777777777777,1.0,0.822222222222222
294,0.0,0.15596330275229373,0.28440366972477094,0.36697247706421954,0.4862385321100912,0.5504587155963299,0.678899082568807,0.8532110091743118,1.0,0.6330275229357795
295,0.0,0.1739130434782612,0.3043478260869571,0.3739130434782616,0.4869565217391304,0.5478260869565218,0.6347826086956524,0.8521739130434789,1.0,0.6260869565217394
296,0.0,0.1324503311258279,0.21192052980132467,0.27152317880794796,0.35761589403973537,0.41059602649006655,0.7483443708609284,0.9139072847682126,1.0,0.4701986754966898
297,0.0,0.18181818181818182,0.299999999999999,0.36363636363636365,0.4818181818181808,0.5454545454545454,0.5545454545454536,0.7818181818181819,1.0,0.6272727272727263
298,0.0,0.19801980198019825,0.34653465346534584,0.44554455445544494,0.5742574257425749,0.6336633663366343,0.6336633663366343,0.7623762376237622,1.0,0.7227722772277224
299,0.0,0.20202020202020224,0.3535353535353528,0.4242424242424247,0.555555555555555,0.626262626262627,0.626262626262627,0.7575757575757573,1.0,0.7171717171717169
300,0.0,0.1714285714285716,0.27619047619047543,0.3523809523809517,0.4761904761904767,0.5428571428571424,0.5428571428571424,0.7714285714285712,1.0,0.6285714285714292
301,0.0,0.1724137931034486,0.2844827586206892,0.37068965517241353,0.4827586206896542,0.5517241379310336,0.6293103448275864,0.8448275862068962,1.0,0.6293103448275864
302,0.0,0.16216216216216234,0.2972972972972986,0.38738738738738876,0.504504504504505,0.5675675675675671,0.5675675675675671,0.7837837837837835,1.0,0.6486486486486494
303,0.0,0.17391304347826103,0.3043478260869559,0.39130434782608636,0.504347826086955,0.5652173913043474,0.6347826086956518,0.8521739130434771,1.0,0.643478260869564
304,0.0,0.18627450980392088,0.33333333333333404,0.4313725490196088,0.5588235294117648,0.6274509803921582,0.6274509803921582,0.7647058823529407,1.0,0.7156862745098044
305,0.0,0.18348623853211027,0.29357798165137644,0.36697247706422054,0.4862385321100912,0.5504587155963309,0.6238532110091749,0.8532110091743118,1.0,0.6330275229357795
306,0.0,0.1724137931034483,0.3017241379310354,0.3965517241379291,0.5086206896551734,0.5775862068965527,0.6120689655172423,0.8275862068965517,1.0,0.6551724137931034
307,0.0,0.1307189542483661,0.2287581699346414,0.29411764705882304,0.37908496732026026,0.42483660130718914,0.7516339869281029,0.8888888888888895,1.0,0.48366013071895314
308,0.0,0.17699115044247804,0.30973451327433366,0.38053097345132486,0.49557522123893855,0.557522123893803,0.6106194690265483,0.8318584070796449,1.0,0.637168141592921
309,0.0,0.17857142857142858,0.30357142857143055,0.375000000000002,0.49107142857142955,0.5535714285714306,0.687500000000003,0.8839285714285724,1.0,0.6339285714285724
310,0.0,0.1709401709401711,0.29914529914530036,0.41025641025641063,0.5042735042735057,0.5641025641025665,0.7350427350427376,0.8547008547008556,1.0,0.6410256410256426
311,0.0,0.15189873417721583,0.3417721518987314,0.21518987341772103,0.2911392405063261,0.3797468354430368,0.44303797468354195,0.7594936708860791,1.0,0.4936708860759472
312,0.0,0.17543859649122842,0.29824561403508637,0.4385964912280691,0.5,0.5614035087719309,0.6315789473684222,0.8508771929824568,1.0,0.6403508771929828
313,0.0,0.162162162162164,0.297297297297296,0.405405405405404,0.52252252252252,0.585585585585584,0.585585585585584,0.783783783783784,1.0,0.666666666666664
314,0.0,0.1324503311258277,0.23178807947019925,0.2980132450331116,0.38410596026490185,0.4304635761589393,0.7549668874172195,0.8675496688741723,1.0,0.49006622516556403
315,0.0,0.14655172413793063,0.2758620689655183,0.39655172413793066,0.5086206896551715,0.5689655172413796,0.6206896551724124,0.8362068965517264,1.0,0.6465517241379306
316,0.0,0.18348623853211027,0.30275229357798095,0.36697247706422054,0.4862385321100912,0.5504587155963268,0.6055045871559619,0.8348623853210987,1.0,0.6330275229357795
317,0.0,0.17543859649122773,0.3070175438596495,0.3771929824561406,0.4912280701754376,0.5526315789473684,0.6315789473684198,0.8508771929824535,1.0,0.6315789473684198
318,0.0,0.16666666666666408,0.29824561403508637,0.37719298245613814,0.49122807017543957,0.5526315789473666,0.5701754385964913,0.7894736842105259,1.0,0.6315789473684222
319,0.0,0.16521739130434926,0.2956521739130424,0.38260869565217503,0.49565217391304395,0.5565217391304363,0.6173913043478289,0.8347826086956546,1.0,0.6347826086956531
320,0.0,0.19642857142857342,0.4642857142857103,0.32142857142856746,0.3928571428571389,0.5178571428571409,0.5178571428571409,0.749999999999996,1.0,0.6785714285714246
321,0.0,0.18867924528301847,0.2924528301886797,0.37735849056603693,0.4999999999999979,0.5660377358490554,0.6226415094339589,0.8584905660377351,1.0,0.6509433962264127
322,0.0,0.17241379310345145,0.3017241379310343,0.38793103448276384,0.5000000000000038,0.5689655172413829,0.6379310344827619,0.8534482758620666,1.0,0.6465517241379295
323,0.0,0.16666666666666796,0.29824561403508637,0.3859649122806986,0.4999999999999961,0.5614035087719309,0.6140350877193014,0.833333333333332,1.0,0.6403508771929788
324,0.0,0.1504424778761087,0.28318584070796377,0.38938053097344627,0.5044247787610634,0.5663716814159275,0.6283185840707917,0.8495575221238914,1.0,0.6460176991150453
325,0.0,0.17241379310345145,0.3017241379310343,0.3534482758620705,0.4655172413793105,0.5258620689655142,0.5775862068965505,0.7931034482758629,1.0,0.6034482758620686
326,0.0,0.1844660194174774,0.31067961165048646,0.39805825242718035,0.5242718446601894,0.5922330097087387,0.5922330097087387,0.7669902912621351,1.0,0.6796116504854326
327,0.0,0.18518518518518853,0.2777777777777787,0.36111111111111477,0.4814814814814836,0.5462962962962951,0.5648148148148114,0.7962962962962951,1.0,0.6296296296296312
328,0.0,0.16216216216216064,0.2972972972972932,0.4054054054054056,0.5225225225225221,0.5855855855855824,0.6486486486486426,0.8738738738738715,1.0,0.6666666666666666
329,0.0,0.17699115044247482,0.292035398230085,0.3716814159292034,0.4867256637168136,0.5486725663716782,0.6017699115044238,0.8230088495575252,1.0,0.6283185840707965
330,0.0,0.05925925925925931,0.1555555555555565,0.3185185185185196,0.40000000000000036,0.540740740740742,0.6370370370370375,0.8222222222222237,1.0,0.607407407407408
331,0.0,0.26666666666666705,0.3466666666666672,0.3466666666666672,0.5066666666666674,0.5733333333333357,0.3466666666666672,0.6800000000000025,1.0,0.6800000000000025
332,0.0,0.12269938650306757,0.21472392638036755,0.4294478527607351,0.5092024539877297,0.6257668711656432,0.6993865030674837,0.8527607361963189,1.0,0.6809815950920243
333,0.0,0.16260162601626002,0.260162601626016,0.260162601626016,0.35772357723577203,0.51219512195122,0.6016260162601621,0.804878048780488,1.0,0.5853658536585361
334,0.0,0.053691275167785275,0.15436241610738044,0.3892617449664418,0.4697986577181197,0.5973154362416104,0.6711409395973129,0.8389261744966442,1.0,0.6577181208053682
335,0.0,0.17391304347826114,0.33333333333332904,0.33333333333332904,0.405797101449276,0.4927536231884034,0.4927536231884034,0.7971014492753588,1.0,0.594202898550724
336,0.0,0.05142857142857089,0.0971428571428567,0.33714285714285586,0.3885714285714268,0.49714285714285616,0.8285714285714295,0.9085714285714284,1.0,0.5199999999999991
337,0.0,0.14655172413793335,0.2672413793103486,0.5775862068965505,0.6293103448275866,0.7327586206896514,0.7327586206896514,0.8965517241379276,1.0,0.77586206896552
338,0.0,0.03351955307262574,0.11731843575419008,0.31284916201117297,0.385474860335196,0.4636871508379894,0.7430167597765373,0.8659217877094982,1.0,0.5139664804469274
339,0.0,0.034482758620689696,0.09195402298850587,0.28735632183907955,0.3620689655172412,0.4482758620689648,0.7183908045977014,0.8620689655172412,1.0,0.5
340,0.0,0.03409090909090909,0.07954545454545454,0.29545454545454547,0.3693181818181812,0.45454545454545453,0.7272727272727273,0.8636363636363636,1.0,0.5056818181818176
341,0.0,0.040229885057471854,0.12643678160919652,0.2873563218390814,0.36206896551724155,0.44827586206896625,0.7298850574712641,0.8620689655172415,1.0,0.5
342,0.0,0.14615384615384724,0.25384615384615344,0.4307692307692315,0.4846153846153863,0.6461538461538473,0.7615384615384637,0.815384615384615,1.0,0.6769230769230781
343,0.0,0.022727272727272783,0.10795454545454383,0.2954545454545462,0.3693181818181821,0.4545454545454557,0.7329545454545466,0.8636363636363633,1.0,0.5056818181818188
344,0.0,0.005714285714285091,0.09142857142857161,0.2914285714285701,0.36571428571428644,0.457142857142858,0.7314285714285729,0.8628571428571425,1.0,0.5085714285714289
345,0.0,0.12413793103448133,0.15862068965517023,0.15862068965517023,0.2482758620689657,0.3586206896551727,0.7172413793103454,0.8344827586206895,1.0,0.42068965517241336
346,0.0,0.13986013986014242,0.13986013986014242,0.1468531468531517,0.2377622377622415,0.27972027972027863,0.7202797202797213,0.8321678321678329,1.0,0.34265734265734366
347,0.0,0.2631578947368421,0.4473684210526345,0.4473684210526345,0.5921052631578932,0.6710526315789488,0.6710526315789488,0.8289473684210541,1.0,0.7894736842105263
348,0.0,0.037974683544302446,0.13291139240506278,0.31645569620253067,0.39873417721518833,0.5443037974683538,0.8037974683544294,0.8481012658227846,1.0,0.6012658227848089
349,0.0,0.32203389830508533,0.5762711864406791,0.4067796610169499,0.49152542372881447,0.5762711864406791,0.5762711864406791,0.7118644067796605,1.0,0.7118644067796605
350,0.0,0.11494252873563233,0.20114942528735594,0.35632183908045895,0.4310344827586206,0.5459770114942529,0.8563218390804602,1.0,1.0,0.5804597701149427
351,0.0,0.16249999999999906,0.20000000000000057,0.2124999999999992,0.37500000000000105,0.43749999999999983,0.5750000000000016,0.862500000000001,1.0,0.5000000000000014
352,0.0,0.1212121212121213,0.21212121212121293,0.33939393939393964,0.41818181818181777,0.5212121212121216,0.8484848484848491,1.0,1.0,0.5757575757575755
353,0.0,0.1370967741935475,0.25806451612903225,0.379032258064517,0.4435483870967751,0.6048387096774203,0.8467741935483862,0.8951612903225815,1.0,0.6612903225806434
354,0.0,0.16867469879517782,0.2409638554216864,0.2409638554216864,0.36144578313252695,0.42168674698795255,0.6385542168674677,0.7710843373493965,1.0,0.4819277108433728
355,0.0,0.16000000000000014,0.2240000000000002,0.2240000000000002,0.27199999999999847,0.4480000000000004,0.815999999999999,0.8719999999999999,1.0,0.49599999999999866
356,0.0,0.0962962962962954,0.13333333333333486,0.13333333333333486,0.1925925925925941,0.37037037037037174,0.8592592592592585,0.9481481481481474,1.0,0.4370370370370375
357,0.0,0.15517241379310537,0.2672413793103458,0.3448275862068966,0.4051724137931044,0.560344827586206,0.6637931034482749,0.8275862068965517,1.0,0.6206896551724138
358,0.0,0.08333333333333223,0.17261904761904742,0.32142857142857095,0.3988095238095229,0.5297619047619055,0.8511904761904765,1.0,1.0,0.5595238095238096
359,0.0,0.2439024390243909,0.2439024390243909,0.2560975609756091,0.41463414634146184,0.7073170731707309,0.6951219512195127,0.7073170731707309,1.0,0.7073170731707309
360,0.0,0.15503875968992262,0.19379844961240242,0.29457364341085124,0.37984496124030953,0.426356589147288,0.7829457364341118,0.9767441860465107,1.0,0.4806201550387584
361,0.0,0.11299435028248817,0.19774011299435054,0.34463276836158063,0.4180790960451957,0.5536723163841785,0.8587570621468911,1.0,1.0,0.5988700564971727
362,0.0,0.273972602739722,0.273972602739722,0.287671232876713,0.4657534246575347,0.7945205479452084,0.7808219178082175,0.7945205479452084,1.0,0.7945205479452084
363,0.0,0.1342281879194632,0.1342281879194632,0.14093959731543634,0.22818791946308742,0.3087248322147653,0.74496644295302,0.8389261744966442,1.0,0.369127516778523
364,0.0,0.20833333333333381,0.20833333333333381,0.21874999999999936,0.3541666666666652,0.47916666666666546,0.4895833333333333,0.7499999999999994,1.0,0.5729166666666669
365,0.0,0.005494505494506112,0.08791208791208802,0.28021978021977995,0.34065934065934106,0.4615384615384621,0.7307692307692311,0.8681318681318679,1.0,0.510989010989011
366,0.0,0.1342281879194632,0.1342281879194632,0.1409395973154356,0.22818791946308592,0.3087248322147638,0.74496644295302,0.8389261744966442,1.0,0.369127516778523
367,0.0,0.212765957446809,0.212765957446809,0.2234042553191483,0.36170212765957294,0.4787234042553191,0.4787234042553191,0.7446808510638292,1.0,0.5744680851063819
368,0.0,0.212765957446809,0.212765957446809,0.2234042553191483,0.36170212765957294,0.4893617021276584,0.4893617021276584,0.7446808510638292,1.0,0.585106382978726
369,0.0,0.12738853503184722,0.17197452229299162,0.17197452229299162,0.2420382165605083,0.38216560509554165,0.6878980891719721,0.8471337579617834,1.0,0.43949044585987224
370,0.0,0.00558659217877034,0.08938547486033536,0.2849162011173196,0.32960893854748724,0.46368715083799034,0.7262569832402236,0.8659217877094969,1.0,0.5139664804469283
371,0.0,0.21052631578947908,0.21052631578947908,0.22105263157894697,0.35789473684210416,0.46315789473684843,0.48421052631579353,0.7473684210526307,1.0,0.557894736842106
372,0.0,0.11173184357541893,0.18435754189944134,0.3351955307262568,0.39106145251396635,0.5027932960893854,0.8268156424581005,0.9217877094972067,1.0,0.5530726256983239
373,0.0,0.12269938650306761,0.21472392638036833,0.32515337423312884,0.40490797546012275,0.521472392638037,0.8036809815950925,0.9263803680981594,1.0,0.5766871165644174
374,0.0,0.10204081632653073,0.17857142857142821,0.3469387755102039,0.4132653061224489,0.5102040816326531,0.8061224489795916,0.9132653061224488,1.0,0.556122448979592
375,0.0,0.005464480874316943,0.0874316939890711,0.2786885245901635,0.3497267759562844,0.45901639344262324,0.7322404371584704,0.8688524590163934,1.0,0.5081967213114751
376,0.0,0.005434782608695055,0.05978260869565164,0.277173913043478,0.3478260869565222,0.47826086956521674,0.7336956521739133,0.8695652173913042,1.0,0.5271739130434783
377,0.0,0.13986013986013998,0.13986013986013998,0.14685314685314618,0.23776223776223795,0.38461538461538414,0.6573426573426578,0.8321678321678321,1.0,0.4475524475524479
378,0.0,0.14084507042253522,0.14084507042253522,0.14788732394366275,0.23943661971830985,0.38732394366197104,0.7605633802816901,0.8309859154929577,1.0,0.4507042253521127
379,0.0,0.1724137931034483,0.1724137931034483,0.18103448275862163,0.29310344827586204,0.4482758620689655,0.5775862068965527,0.7931034482758621,1.0,0.4827586206896552
380,0.0,0.04716981132075377,0.04716981132075377,0.05660377358490578,0.17924528301886725,0.40566037735848826,0.5377358490566039,0.7735849056603769,1.0,0.49056603773585006
381,0.0,0.19230769230769232,0.2500000000000021,0.2596153846153857,0.38461538461538464,0.5576923076923098,0.5576923076923098,0.7692307692307693,1.0,0.6442307692307703
382,0.0,0.19767441860465038,0.19767441860465038,0.2093023255813933,0.3604651162790668,0.5930232558139511,0.5930232558139511,0.7209302325581388,1.0,0.6976744186046479
383,0.0,0.22471910112359578,0.28089887640449346,0.28089887640449346,0.38202247191011035,0.6292134831460682,0.6292134831460682,0.8202247191011234,1.0,0.7303370786516851
384,0.0,0.1649484536082476,0.23711340206185708,0.6185567010309285,0.6494845360824761,0.6701030927835048,0.6185567010309285,0.8762886597938143,1.0,0.762886597938143
385,0.0,0.18691588785046373,0.3271028037383157,0.48598130841121234,0.6074766355140195,0.831775700934581,0.8224299065420545,0.831775700934581,1.0,0.831775700934581
386,0.0,0.19736842105263305,0.27631578947368274,0.27631578947368274,0.3815789473684196,0.4473684210526345,0.4473684210526345,0.763157894736845,1.0,0.565789473684212
387,0.0,0.06395348837209366,0.15116279069767571,0.33139534883720867,0.4069767441860478,0.5465116279069755,0.813953488372093,0.9593023255813947,1.0,0.5988372093023262
388,0.0,0.16379310344827683,0.2413793103448276,0.3793103448275862,0.45689655172413696,0.6551724137931034,0.6551724137931034,0.7931034482758621,1.0,0.7327586206896542
389,0.0,0.10555555555555617,0.17222222222222283,0.28333333333333394,0.34444444444444566,0.4666666666666667,0.7666666666666679,0.9055555555555562,1.0,0.516666666666666
390,0.0,0.11363636363636616,0.198863636363637,0.32386363636363824,0.397727272727274,0.5170454545454551,0.801136363636363,0.9147727272727292,1.0,0.5681818181818207
391,0.0,0.11235955056180039,0.19662921348314694,0.3707865168539318,0.4438202247191048,0.5449438202247217,0.7752808988764042,0.9157303370786535,1.0,0.5955056179775275
392,0.0,0.06598984771573552,0.1421319796954293,0.30456852791877964,0.37055837563451516,0.47715736040608825,0.7664974619289328,0.8781725888324873,1.0,0.5228426395939072
393,0.0,0.00555555555555742,0.08888888888888911,0.28333333333333466,0.35555555555555646,0.47222222222222276,0.7611111111111099,0.8666666666666664,1.0,0.5222222222222247
394,0.0,0.10666666666666638,0.10666666666666638,0.11333333333333305,0.1999999999999998,0.34666666666666657,0.6799999999999997,0.8466666666666666,1.0,0.4066666666666666
395,0.0,0.1503759398496242,0.1503759398496242,0.1578947368421054,0.2556390977443611,0.42857142857142894,0.646616541353384,0.819548872180451,1.0,0.4962406015037598
396,0.0,0.05405405405405409,0.12162162162162171,0.20945945945945962,0.29729729729729754,0.4527027027027023,0.6689189189189186,0.8378378378378377,1.0,0.4864864864864861
397,0.0,0.16528925619834725,0.2892561983471068,0.34710743801652927,0.45454545454545403,0.6198347107438013,0.6198347107438013,0.8016528925619832,1.0,0.6942148760330585
398,0.0,0.13986013986013998,0.1888111888111882,0.3706293706293701,0.4615384615384619,0.6013986013986004,0.6573426573426563,0.8321678321678321,1.0,0.664335664335664
399,0.0,0.16666666666666777,0.22549019607843246,0.3137254901960784,0.4215686274509815,0.6176470588235305,0.6176470588235305,0.7647058823529411,1.0,0.7058823529411765
400,0.0,0.212765957446809,0.34042553191489444,0.34042553191489444,0.4468085106382989,0.7021276595744674,0.712765957446809,0.7978723404255326,1.0,0.7978723404255326
401,0.0,0.14999999999999888,0.3,0.3899999999999989,0.52,0.7499999999999989,0.7499999999999989,0.8099999999999989,1.0,0.8099999999999989
402,0.0,0.11309523809523876,0.17857142857142988,0.2619047619047619,0.33928571428571624,0.4821428571428565,0.8035714285714293,0.9523809523809523,1.0,0.5238095238095238
403,0.0,0.1503759398496242,0.1503759398496242,0.15789473684210456,0.25563909774435944,0.4285714285714281,0.7819548872180424,0.9699248120300752,1.0,0.49624060150375815
404,0.0,0.25,0.25,0.2624999999999986,0.4249999999999972,0.7249999999999972,0.7249999999999972,0.8624999999999986,1.0,0.8374999999999958
405,0.0,0.13605442176870738,0.17006802721088649,0.2108843537414972,0.29931972789115624,0.46258503401360507,0.8299319727891166,1.0,1.0,0.5238095238095257
406,0.0,0.1212121212121213,0.21212121212121293,0.25454545454545335,0.27878787878787764,0.4242424242424232,0.7151515151515143,0.8666666666666653,1.0,0.4787878787878771
407,0.0,0.06756756756756627,0.16216216216216264,0.31756756756756627,0.3310810810810813,0.39189189189189155,0.7162162162162169,0.8851351351351355,1.0,0.4527027027027018
408,0.0,0.13986013986014018,0.19580419580419625,0.44055944055943924,0.5314685314685327,0.6643356643356636,0.6713286713286698,0.8461538461538474,1.0,0.7272727272727258
409,0.0,0.13986013986013707,0.19580419580419314,0.46153846153846106,0.5524475524475514,0.7202797202797196,0.7202797202797196,0.8951048951048941,1.0,0.7832167832167819
410,0.0,0.04469273743016757,0.12849162011173237,0.2681564245810054,0.34078212290502957,0.47486033519552984,0.7765363128491621,0.9162011173184352,1.0,0.5251396648044702
411,0.0,0.042105263157894784,0.12105263157894576,0.305263157894736,0.37368421052631445,0.4947368421052626,0.7684210526315787,0.8736842105263156,1.0,0.531578947368421
412,0.0,0.005555555555554939,0.08888888888888889,0.28333333333333394,0.35555555555555557,0.4777777777777765,0.7500000000000007,0.8666666666666667,1.0,0.5277777777777783
413,0.0,0.09210526315789089,0.09210526315789089,0.09868421052631418,0.18421052631578763,0.3355263157894705,0.6776315789473701,0.8421052631578938,1.0,0.39473684210526255
414,0.0,0.08843537414965905,0.16326530612244886,0.1768707482993181,0.2653061224489771,0.4013605442176875,0.714285714285716,0.8843537414965965,1.0,0.46258503401360207
415,0.0,0.08287292817679379,0.16574585635358757,0.35911602209944465,0.4309392265193336,0.5635359116022066,0.861878453038672,1.0,1.0,0.5635359116022066
416,0.0,0.16393442622950485,0.16393442622950485,0.17213114754098302,0.27868852459016263,0.4754098360655728,0.5983606557377015,0.8032786885245898,1.0,0.5491803278688544
417,0.0,0.2439024390243899,0.2439024390243899,0.25609756097560943,0.4146341463414633,0.707317073170732,0.6951219512195125,0.707317073170732,1.0,0.707317073170732
418,0.0,0.16806722689075645,0.16806722689075645,0.1764705882352943,0.285714285714286,0.45378151260504246,0.6218487394957989,0.7983193277310932,1.0,0.5126050420168072
419,0.0,0.15748031496063006,0.2677165354330711,0.30708661417322863,0.4094488188976382,0.5984251968503933,0.6141732283464564,0.8110236220472439,1.0,0.6692913385826769
420,0.0,0.20000000000000023,0.20000000000000023,0.21000000000000024,0.34000000000000036,0.5399999999999995,0.5399999999999995,0.7599999999999998,1.0,0.6300000000000007
421,0.0,0.21739130434782608,0.21739130434782608,0.2282608695652186,0.3695652173913043,0.5760869565217404,0.5760869565217404,0.7391304347826086,1.0,0.6739130434782609
422,0.0,0.20000000000000046,0.20000000000000046,0.20999999999999935,0.34000000000000075,0.51,0.51,0.7599999999999995,1.0,0.5999999999999991
423,0.0,0.2,0.34,0.34,0.44,0.6300000000000011,0.6300000000000011,0.76,1.0,0.72
424,0.0,0.19417475728155362,0.33980582524271774,0.4174757281553392,0.54368932038835,0.7281553398058249,0.7281553398058249,0.786407766990291,1.0,0.786407766990291
425,0.0,0.12345679012345559,0.21604938271604898,0.28395061728394966,0.36419753086419737,0.5123456790123457,0.8456790123456794,1.0,1.0,0.5123456790123457
426,0.0,0.13333333333333203,0.13333333333333203,0.14074074074074192,0.23703703703703763,0.41481481481481586,0.8296296296296317,1.0,1.0,0.48148148148148184
427,0.0,0.14388489208633082,0.1798561151079159,0.19424460431654741,0.28776978417266164,0.43165467625899245,0.8201438848920872,1.0,1.0,0.49640287769784375
428,0.0,0.13513513513513514,0.1891891891891892,0.23648648648648724,0.32432432432432434,0.46621621621621545,0.8310810810810788,1.0,1.0,0.5270270270270255
429,0.0,0.2022471910112387,0.28089887640449346,0.32584269662921267,0.47191011235954866,0.6629213483146088,0.6629213483146088,0.7303370786516851,1.0,0.7303370786516851
430,0.0,0.14598540145985414,0.14598540145985414,0.15328467153284603,0.2481751824817504,0.42335766423357535,0.8175182481751831,1.0,1.0,0.4890510948905089
431,0.0,0.21739130434782608,0.21739130434782608,0.22826086956521618,0.36956521739130194,0.597826086956523,0.597826086956523,0.7391304347826086,1.0,0.6956521739130435
432,0.0,0.11299435028248594,0.19774011299435104,0.28813559322033977,0.361581920903955,0.47457627118644097,0.7796610169491518,0.9209039548022586,1.0,0.525423728813559
433,0.0,0.11235955056179789,0.15168539325842778,0.3314606741573044,0.4044943820224724,0.5224719101123596,0.8258426966292152,0.9213483146067427,1.0,0.5730337078651705
434,0.0,0.11235955056179789,0.19662921348314444,0.38202247191011285,0.45505617977528084,0.5786516853932573,0.8146067415730341,0.9213483146067403,1.0,0.6292134831460657
435,0.0,0.11049723756906084,0.19337016574585708,0.3867403314917117,0.45856353591160065,0.5635359116022091,0.9337016574585635,1.0,1.0,0.6132596685082858
436,0.0,0.09756097560975593,0.17073170731707343,0.34146341463414687,0.40487804878048766,0.4975609756097564,0.7902439024390242,0.8829268292682929,1.0,0.541463414634146
437,0.0,0.006944444444446757,0.1111111111111111,0.35416666666666746,0.4444444444444444,0.5763888888888896,0.6597222222222199,0.8333333333333334,1.0,0.6388888888888858
438,0.0,0.10294117647058987,0.10294117647058987,0.11029411764705638,0.20588235294117974,0.3676470588235278,0.6544117647058848,0.8235294117647058,1.0,0.4338235294117655
439,0.0,0.11299435028248817,0.19774011299435054,0.31073446327683873,0.38418079096045377,0.49152542372881575,0.7570621468926552,0.8983050847457642,1.0,0.5423728813559312
440,0.0,0.0055865921787678725,0.08938547486033559,0.2849162011173203,0.35754189944134235,0.47486033519553217,0.7486033519553068,0.8659217877094966,1.0,0.5251396648044678
441,0.0,0.12711864406779674,0.23728813559322057,0.28813559322033927,0.3644067796610173,0.44067796610169485,0.5847457627118645,0.7966101694915257,1.0,0.516949152542373
442,0.0,0.16393442622950835,0.2786885245901642,0.3196721311475413,0.39344262295082005,0.49180327868852414,0.5983606557377046,0.80327868852459,1.0,0.5409836065573767
443,0.0,0.1612903225806453,0.2661290322580648,0.2822580645161293,0.3870967741935487,0.5000000000000004,0.6048387096774199,0.8064516129032265,1.0,0.5725806451612908
444,0.0,0.11206896551724149,0.2327586206896554,0.24137931034482782,0.3534482758620693,0.43965517241379354,0.5775862068965523,0.7931034482758619,1.0,0.4741379310344832
445,0.0,0.13821138211382217,0.2601626016260165,0.3089430894308946,0.38211382113821263,0.4552845528455289,0.6016260162601631,0.8048780487804894,1.0,0.528455284552847
446,0.0,0.1626016260162603,0.28455284552845644,0.3089430894308946,0.39024390243902474,0.49593495934959303,0.6016260162601631,0.8048780487804876,1.0,0.5691056910569111
447,0.0,0.1206896551724138,0.23275862068965614,0.2413793103448276,0.35344827586206995,0.43965517241379404,0.5775862068965527,0.7931034482758621,1.0,0.5172413793103449
448,0.0,0.12820512820512928,0.25641025641025667,0.25641025641025667,0.3675213675213688,0.4529914529914544,0.5811965811965818,0.7948717948717947,1.0,0.5299145299145304
449,0.0,0.13333333333333333,0.25833333333333425,0.3,0.37499999999999906,0.4583333333333324,0.5916666666666658,0.8,1.0,0.5333333333333333
450,0.0,0.10256410256410266,0.23076923076923195,0.2905982905982909,0.3589743589743593,0.4529914529914544,0.5811965811965818,0.7948717948717966,1.0,0.5299145299145304
451,0.0,0.0964912280701766,0.2280701754385989,0.2894736842105259,0.3596491228070173,0.4473684210526334,0.5701754385964913,0.7894736842105259,1.0,0.5
452,0.0,0.14166666666666575,0.26666666666666666,0.3,0.37499999999999906,0.4749999999999991,0.6333333333333333,0.8,1.0,0.5499999999999982
453,0.0,0.14529914529914828,0.27350427350427375,0.3162393162393194,0.39316239316239543,0.4786324786324791,0.632478632478635,0.8205128205128213,1.0,0.5384615384615399
454,0.0,0.0964912280701766,0.22807017543859498,0.271929824561405,0.34210526315789636,0.4298245614035086,0.5701754385964913,0.7894736842105259,1.0,0.5087719298245604
455,0.0,0.14285714285714232,0.26890756302521085,0.27731092436974775,0.3781512605042018,0.470588235294119,0.5966386554621838,0.8067226890756325,1.0,0.5462184873949586
456,0.0,0.11111111111111027,0.23931623931623955,0.29059829059828896,0.3589743589743574,0.44444444444444486,0.5811965811965818,0.7948717948717947,1.0,0.521367521367521
457,0.0,0.09565217391304436,0.22608695652174085,0.2782608695652171,0.35652173913043345,0.4695652173913058,0.5739130434782583,0.7913043478260872,1.0,0.5478260869565221
458,0.0,0.1626016260162606,0.28455284552845334,0.3170731707317055,0.39024390243902546,0.4634146341463418,0.6016260162601624,0.8048780487804873,1.0,0.5365853658536582
459,0.0,0.16260162601626002,0.28455284552845594,0.31707317073170793,0.390243902439024,0.48780487804878003,0.6016260162601639,0.804878048780488,1.0,0.5609756097560997
460,0.0,0.13445378151260542,0.2605042016806702,0.3109243697478991,0.3781512605042018,0.4621848739495783,0.5882352941176469,0.7983193277310918,1.0,0.5378151260504217
461,0.0,0.1557377049180334,0.24590163934426368,0.31967213114754134,0.38524590163934447,0.5081967213114763,0.5983606557377029,0.8032786885245905,1.0,0.581967213114754
462,0.0,0.11403508771929749,0.24561403508771978,0.28070175438596545,0.3596491228070173,0.438596491228073,0.5877192982456162,0.8070175438596467,1.0,0.5175438596491247
463,0.0,0.1599999999999966,0.28000000000000114,0.32800000000000296,0.3999999999999986,0.4960000000000022,0.607999999999997,0.8079999999999998,1.0,0.5679999999999978
464,0.0,0.14166666666666203,0.26666666666666666,0.2833333333333315,0.37499999999999906,0.45833333333333054,0.5916666666666639,0.8,1.0,0.5333333333333333
465,0.0,0.12711864406779355,0.2542372881355946,0.28813559322033655,0.3644067796610172,0.4576271186440688,0.5847457627118624,0.7966101694915259,1.0,0.5338983050847419
466,0.0,0.11206896551724085,0.24137931034482468,0.29310344827586127,0.3620689655172408,0.43965517241379576,0.5862068965517225,0.8017241379310366,1.0,0.5
467,0.0,0.15702479338842404,0.28099173553718954,0.31404958677685546,0.38842975206611474,0.45454545454545386,0.6033057851239652,0.8016528925619826,1.0,0.49586776859503995
468,0.0,0.0940170940170941,0.13675213675213688,0.13675213675213688,0.22222222222222243,0.2991452991452994,0.615384615384615,0.7948717948717947,1.0,0.3418803418803422
469,0.0,0.1212121212121213,0.21212121212121227,0.38181818181818206,0.44242424242424205,0.4969696969696966,0.7030303030303028,0.8545454545454545,1.0,0.5515151515151512
470,0.0,0.09352517985611439,0.17985611510791302,0.20143884892086347,0.29496402877697786,0.38848920863309383,0.6906474820143874,0.8417266187050358,1.0,0.453237410071942
471,0.0,0.16666666666666702,0.29629629629629484,0.4166666666666665,0.5370370370370361,0.703703703703703,0.703703703703703,0.7777777777777773,1.0,0.7777777777777773
472,0.0,0.15503875968992262,0.15503875968992262,0.16279069767441962,0.26356589147286846,0.3333333333333345,0.6279069767441875,0.8139534883720946,1.0,0.4031007751937988
473,0.0,0.13986013986013998,0.18181818181818196,0.2167832167832162,0.30769230769230793,0.3706293706293701,0.706293706293706,0.8321678321678321,1.0,0.43356643356643393
474,0.0,0.13513513513513514,0.23648648648648724,0.26351351351351426,0.35135135135135137,0.5135135135135135,0.6689189189189196,0.8378378378378378,1.0,0.5743243243243266
475,0.0,0.007633587786258714,0.07633587786259392,0.38931297709923846,0.48854961832061194,0.5572519083969472,0.6259541984732824,0.8167938931297706,1.0,0.6259541984732824
476,0.0,0.11864406779661227,0.11864406779661227,0.1271186440677978,0.2372881355932208,0.41525423728813543,0.6016949152542393,0.8135593220338998,1.0,0.4915254237288126
477,0.0,0.1538461538461561,0.2637362637362634,0.5164835164835171,0.6593406593406586,0.8461538461538439,0.8461538461538439,0.9120879120879122,1.0,0.9120879120879122
478,0.0,0.07462686567164026,0.07462686567164026,0.08208955223880363,0.1791044776119406,0.23134328358208744,0.6343283582089555,0.8208955223880594,1.0,0.27611940298507426
479,0.0,0.1438848920863313,0.2158273381294953,0.2158273381294953,0.24460431654676157,0.3021582733812941,0.6906474820143902,0.8705035971223034,1.0,0.36690647482014555
480,0.0,0.1739130434782607,0.1739130434782607,0.18260869565217663,0.2956521739130451,0.38260869565217354,0.7043478260869588,0.9217391304347836,1.0,0.46086956521739375
481,0.0,0.1324503311258281,0.17880794701986574,0.18543046357615936,0.2715231788079469,0.3642384105960251,0.7152317880794689,0.8807947019867561,1.0,0.37748344370860937
482,0.0,0.15625,0.15625,0.16406249999999914,0.2656249999999983,0.3359375000000009,0.6171875000000009,0.8125,1.0,0.40625
483,0.0,0.1904761904761907,0.33333333333333476,0.5142857142857169,0.6095238095238101,0.6952380952380949,0.6952380952380949,0.7714285714285712,1.0,0.7714285714285712
484,0.0,0.15151515151515538,0.1742424242424223,0.1742424242424223,0.25757575757575674,0.3257575757575777,0.6287878787878818,0.8181818181818176,1.0,0.39393939393939864
485,0.0,0.07051282051281574,0.16025641025640716,0.26282051282051,0.33974358974359,0.3974358974358943,0.6858974358974329,0.8461538461538457,1.0,0.4358974358974343
486,0.0,0.15037593984962086,0.15037593984962086,0.15789473684210456,0.25563909774435944,0.33082706766916986,0.6315789473684182,0.819548872180451,1.0,0.3834586466165425
487,0.0,0.12987012987013294,0.22727272727272832,0.25324675324675144,0.32467532467532373,0.3831168831168844,0.681818181818185,0.8441558441558439,1.0,0.4415584415584451
488,0.0,0.09929078014184405,0.20567375886524839,0.10638297872340434,0.1914893617021278,0.269503546099291,0.6524822695035458,0.8297872340425531,1.0,0.3333333333333336
489,0.0,0.0072992700729927066,0.1167883211678833,0.37226277372262806,0.452554744525547,0.5109489051094886,0.6423357664233573,0.8248175182481751,1.0,0.576642335766423
490,0.0,0.15625000000000028,0.37500000000000067,0.6406249999999993,0.8124999999999997,0.9374999999999999,0.9374999999999999,0.96875,1.0,0.96875
491,0.0,0.14925373134328382,0.15671641791044802,0.15671641791044802,0.23880597014925412,0.2985074626865668,0.694029850746269,0.8805970149253729,1.0,0.36567164179104455
492,0.0,0.25316455696202567,0.35443037974683594,0.35443037974683594,0.4810126582278488,0.5949367088607589,0.5949367088607589,0.6962025316455692,1.0,0.6962025316455692
493,0.0,0.14925373134328357,0.2611940298507471,0.31343283582089554,0.33582089552238886,0.47761194029850745,0.6343283582089561,0.8208955223880597,1.0,0.4925373134328358
494,0.0,0.12500000000000155,0.2777777777777778,0.2777777777777778,0.3888888888888889,0.569444444444446,0.569444444444446,0.8749999999999984,1.0,0.6944444444444444
495,0.0,0.18518518518518517,0.26851851851851954,0.5185185185185185,0.63888888888889,0.712962962962964,0.5462962962962973,0.7777777777777778,1.0,0.7777777777777778
496,0.0,0.010752688172041856,0.1720430107526888,0.5483870967741943,0.6344086021505387,0.698924731182797,0.5483870967741943,0.7849462365591414,1.0,0.7849462365591414
497,0.0,0.19607843137254943,0.19607843137254943,0.20588235294117582,0.33333333333333187,0.39215686274509887,0.647058823529411,0.7647058823529407,1.0,0.48039215686274506
498,0.0,0.3125,0.3281250000000052,0.3281250000000052,0.5156250000000052,0.6562500000000034,0.6562500000000034,0.9062500000000034,1.0,0.7812500000000034
499,0.0,0.15625000000000056,0.21093749999999814,0.3906249999999996,0.46874999999999817,0.539062500000001,0.6874999999999989,0.8828125000000022,1.0,0.6093750000000003
500,0.0,0.10317460317460211,0.12698412698412676,0.12698412698412676,0.20634920634920775,0.2777777777777782,0.6111111111111092,0.8095238095238099,1.0,0.34126984126984156
501,0.0,0.16867469879518318,0.34939759036144935,0.7108433734939763,0.8192771084337338,0.8554216867469882,0.7108433734939763,0.9759036144578287,1.0,0.9638554216867457
502,0.0,0.10526315789473575,0.19298245614035062,0.3625730994152041,0.43274853801169544,0.5380116959064338,0.8538011695906437,1.0,1.0,0.5789473684210518
503,0.0,0.29411764705882354,0.3970588235294134,0.3970588235294134,0.5441176470588219,0.6764705882352908,0.6764705882352908,0.8088235294117664,1.0,0.8088235294117664
504,0.0,0.14678899082568822,0.28440366972477193,0.4128440366972471,0.5321100917431218,0.6146788990825705,0.642201834862388,0.8715596330275248,1.0,0.697247706422019
505,0.0,0.06870229007633497,0.12213740458015257,0.44274809160305134,0.5190839694656484,0.5877862595419834,0.6259541984732803,0.8167938931297711,1.0,0.6564885496183184
506,0.0,0.2564102564102614,0.2564102564102614,0.26923076923076705,0.4358974358974318,0.5384615384615341,0.5384615384615341,0.6923076923076932,1.0,0.6538461538461534
507,0.0,0.2666666666666722,0.2666666666666722,0.2799999999999981,0.4533333333333415,0.5733333333333339,0.5733333333333339,0.6800000000000005,1.0,0.6800000000000005
508,0.0,0.01807228915662715,0.08433734939759159,0.30722891566265087,0.37951807228915413,0.43373493975903554,0.7289156626506035,0.8795180722891541,1.0,0.487951807228917
509,0.0,0.2666666666666722,0.2666666666666722,0.2799999999999981,0.4533333333333297,0.5599999999999962,0.5599999999999962,0.6800000000000005,1.0,0.6800000000000005
510,0.0,0.16806722689075598,0.2941176470588233,0.3277310924369746,0.403361344537815,0.5294117647058824,0.714285714285714,0.857142857142857,1.0,0.6050420168067223
511,0.0,0.1570247933884298,0.2561983471074381,0.2809917355371902,0.3884297520661154,0.5702479338842973,0.7768595041322313,0.8925619834710743,1.0,0.6363636363636362
512,0.0,0.09482758620689664,0.22413793103448298,0.22413793103448298,0.3362068965517245,0.4051724137931038,0.6637931034482765,0.8793103448275861,1.0,0.48275862068965564
513,0.0,0.12149532710280386,0.2523364485981311,0.2710280373831779,0.39252336448598174,0.4672897196261687,0.7663551401869156,0.925233644859813,1.0,0.5420560747663558
514,0.0,0.1428571428571431,0.23809523809523853,0.31746031746031717,0.38095238095238076,0.44444444444444436,0.7063492063492067,0.9047619047619045,1.0,0.4682539682539682
515,0.0,0.09917355371900835,0.22314049586776788,0.2644628099173556,0.363636363636364,0.520661157024793,0.6942148760330566,0.9008264462809916,1.0,0.5950413223140483
516,0.0,0.125,0.24107142857142758,0.25892857142857045,0.375,0.44642857142857145,0.7410714285714276,0.9285714285714286,1.0,0.4910714285714276
517,0.0,0.1162790697674411,0.2325581395348839,0.2480620155038762,0.34883720930232504,0.48837209302325535,0.6821705426356595,0.8759689922480619,1.0,0.5581395348837214
518,0.0,0.15503875968992262,0.2713178294573637,0.29457364341085296,0.36434108527131726,0.5038759689922476,0.6744186046511625,0.8139534883720929,1.0,0.5736434108527136
519,0.0,0.09756097560975618,0.21951219512195233,0.22764227642276444,0.3170731707317085,0.38211382113821085,0.6341463414634152,0.8373983739837397,1.0,0.4552845528455289
520,0.0,0.13492063492063427,0.2539682539682527,0.2539682539682527,0.3492063492063481,0.42857142857142755,0.6984126984126979,0.8650793650793657,1.0,0.5
521,0.0,0.1639344262295085,0.2704918032786881,0.2868852459016371,0.3934426229508204,0.5327868852459017,0.7295081967213118,0.9016393442622949,1.0,0.6065573770491796
522,0.0,0.15151515151515202,0.2348484848484831,0.25,0.34848484848484795,0.4090909090909088,0.6969696969696959,0.8257575757575777,1.0,0.4545454545454561
523,0.0,0.07031249999999914,0.10937499999999827,0.2734375000000009,0.3671875000000009,0.4375,0.7421874999999974,0.8359374999999974,1.0,0.5078124999999991
524,0.0,0.11111111111111027,0.20512820512820532,0.24786324786324715,0.3589743589743574,0.42735042735042583,0.8119658119658099,0.9230769230769239,1.0,0.5042735042735019
525,0.0,0.18518518518518517,0.3240740740740751,0.37037037037037035,0.4907407407407438,0.5648148148148179,0.7870370370370401,0.9444444444444465,1.0,0.6481481481481502
526,0.0,0.10084033613445406,0.22689075630251884,0.319327731092436,0.38655462184873873,0.4537815126050414,0.7731092436974775,0.9411764705882342,1.0,0.529411764705881
527,0.0,0.10236220472440884,0.21259842519684832,0.22834645669291312,0.33070866141732197,0.5039370078740171,0.8503937007874038,0.944881889763782,1.0,0.5748031496062999
528,0.0,0.10062893081761,0.13836477987421514,0.41509433962264264,0.4905660377358501,0.5408805031446551,0.8238993710691825,0.8805031446540874,1.0,0.5849056603773574
529,0.0,0.14814814814814803,0.22222222222222368,0.2814814814814829,0.37037037037037174,0.4296296296296309,0.6370370370370382,0.8222222222222224,1.0,0.49629629629629674
530,0.0,0.13333333333333333,0.2083333333333324,0.24166666666666575,0.35000000000000187,0.4166666666666685,0.6833333333333352,0.8916666666666676,1.0,0.4916666666666676
531,0.0,0.09243697478991716,0.21848739495798195,0.2521008403361333,0.319327731092436,0.4621848739495821,0.7142857142857153,0.8403361344537839,1.0,0.5378151260504217
532,0.0,0.12389380530973267,0.2566371681415922,0.30973451327433366,0.3893805309734517,0.4778761061946888,0.7699115044247765,0.9380530973451316,1.0,0.557522123893803
533,0.0,0.158730158730159,0.24603174603174735,0.2777777777777791,0.3809523809523816,0.5396825396825407,0.7777777777777809,0.9126984126984117,1.0,0.5793650793650795
534,0.0,0.13281249999999659,0.24999999999999478,0.27343749999999584,0.3593749999999973,0.4609374999999971,0.6171875000000017,0.8124999999999987,1.0,0.5312500000000002
535,0.0,0.07563025210083588,0.20168067226890812,0.2605042016806702,0.35294117647058737,0.4285714285714307,0.6554621848739458,0.8655462184873945,1.0,0.4537815126050377
536,0.0,0.12500000000000464,0.25000000000000183,0.2833333333333389,0.3583333333333343,0.42500000000000093,0.6666666666666666,0.8500000000000019,1.0,0.47500000000000275
537,0.0,0.112903225806453,0.2016129032258084,0.2580645161290313,0.33064516129032406,0.3951612903225819,0.6209677419354808,0.8225806451612891,1.0,0.43548387096774216
538,0.0,0.15151515151515438,0.2424242424242416,0.3106060606060621,0.37878787878787584,0.43939393939393623,0.6818181818181779,0.8409090909090923,1.0,0.5075757575757567
539,0.0,0.10169491525423692,0.1694915254237285,0.27966101694915235,0.3474576271186439,0.5508474576271187,0.754237288135593,0.8813559322033897,1.0,0.6271186440677963
540,0.0,0.08490566037735854,0.22641509433962276,0.2641509433962266,0.33962264150943416,0.5188679245283021,0.7358490566037734,0.9150943396226414,1.0,0.6037735849056601
541,0.0,0.1481481481481483,0.21296296296296216,0.24074074074073995,0.36111111111111044,0.5462962962962958,0.7777777777777776,0.9166666666666666,1.0,0.6296296296296292
542,0.0,0.13114754098360668,0.1803278688524592,0.45081967213114704,0.5245901639344258,0.5819672131147537,0.7786885245901637,0.9590163934426229,1.0,0.6557377049180325
543,0.0,0.13599999999999923,0.25599999999999934,0.2959999999999994,0.35999999999999943,0.5119999999999996,0.6719999999999997,0.8719999999999999,1.0,0.5839999999999996
544,0.0,0.16393442622950757,0.2786885245901635,0.3278688524590161,0.3934426229508195,0.5163934426229508,0.7049180327868847,0.8934426229508204,1.0,0.5737704918032779
545,0.0,0.1626016260162603,0.2601626016260165,0.3170731707317067,0.38211382113821085,0.4552845528455289,0.6910569105691055,0.8699186991869917,1.0,0.5040650406504051
546,0.0,0.15748031496063006,0.2755905511811035,0.2992125984251971,0.3622047244094491,0.4724409448818902,0.6377952755905508,0.8346456692913393,1.0,0.5433070866141728
547,0.0,0.0858895705521473,0.17791411042944866,0.20245398773006218,0.2515337423312892,0.3680981595092027,0.7423312883435581,0.8527607361963189,1.0,0.4110429447852757
548,0.0,0.1626016260162603,0.28455284552845644,0.33333333333333454,0.39837398373983685,0.5934959349593493,0.6747967479674793,0.8780487804878057,1.0,0.6666666666666673
549,0.0,0.08527131782945829,0.17829457364341186,0.2325581395348839,0.29457364341085296,0.4108527131782941,0.8604651162790696,0.9147286821705434,1.0,0.4806201550387601
550,0.0,0.11009174311926617,0.24770642201834786,0.27522935779816543,0.35779816513761403,0.4587155963302757,0.678899082568808,0.8440366972477072,1.0,0.5412844036697243
551,0.0,0.14035087719298245,0.2719298245614025,0.3157894736842105,0.38596491228070173,0.4649122807017534,0.7105263157894727,0.9122807017543859,1.0,0.543859649122807
552,0.0,0.14406779661017044,0.2711864406779642,0.30508474576271,0.38135593220339076,0.48305084745762805,0.7033898305084736,0.8983050847457628,1.0,0.559322033898305
553,0.0,0.06369426751592502,0.14012738853503337,0.1974522292993639,0.24203821656051114,0.38216560509554165,0.7133757961783445,0.8726114649681528,1.0,0.43312101910828055
554,0.0,0.1709401709401711,0.29914529914530036,0.3418803418803422,0.41025641025641063,0.5470085470085475,0.7264957264957262,0.9401709401709429,1.0,0.6239316239316236
555,0.0,0.06748466257668793,0.1595092024539867,0.2147239263803665,0.269938650306749,0.4171779141104303,0.7668711656441727,0.8957055214723931,1.0,0.4723926380368101
556,0.0,0.12345679012345696,0.21604938271605037,0.2283950617283947,0.27777777777777746,0.3641975308641987,0.7654320987654332,0.8518518518518516,1.0,0.4197530864197537
557,0.0,0.12048192771084354,0.21084337349397686,0.24096385542168708,0.2891566265060245,0.3795180722891578,0.7168674698795197,0.8554216867469877,1.0,0.4337349397590367
558,0.0,0.16806722689075304,0.29411764705882154,0.3445378151260505,0.4033613445378125,0.6050420168067207,0.8067226890756288,0.9411764705882342,1.0,0.680672268907564
559,0.0,0.12048192771084354,0.21084337349397417,0.22289156626505988,0.2831325301204803,0.3975903614457823,0.8132530120481919,0.873493975903615,1.0,0.4518072289156613
560,0.0,0.11206896551724042,0.2413793103448276,0.2672413793103458,0.3362068965517251,0.41379310344827586,0.6982758620689645,0.9137931034482778,1.0,0.4827586206896552
561,0.0,0.16129032258064516,0.28225806451612634,0.3225806451612903,0.39516129032257974,0.4596774193548378,0.7016129032258037,0.862903225806449,1.0,0.5322580645161272
562,0.0,0.11764705882352956,0.2058823529411774,0.2058823529411774,0.282352941176471,0.42352941176470643,0.741176470588235,0.8882352941176489,1.0,0.47058823529411825
563,0.0,0.0937500000000007,0.1874999999999986,0.2124999999999986,0.2624999999999986,0.3812499999999993,0.7187499999999979,0.875,1.0,0.4124999999999986
564,0.0,0.09917355371900835,0.2231404958677697,0.23966942148760628,0.3305785123966945,0.47107438016529246,0.7024793388429786,0.8099173553719035,1.0,0.5454545454545477
565,0.0,0.11904761904761904,0.18452380952381017,0.22619047619047752,0.27976190476190543,0.3928571428571442,0.7142857142857143,0.8630952380952375,1.0,0.42857142857142855
566,0.0,0.11695906432748561,0.20467836257310046,0.23391812865497122,0.2865497076023391,0.4210526315789482,0.7836257309941522,0.8713450292397671,1.0,0.46783625730994244
567,0.0,0.0909090909090914,0.17575757575757472,0.2242424242424231,0.2727272727272715,0.4060606060606059,0.7636363636363608,0.8727272727272682,1.0,0.4606060606060597
568,0.0,0.11180124223602324,0.20496894409938052,0.24223602484472345,0.2981366459627323,0.428571428571427,0.8012422360248451,0.919254658385094,1.0,0.48447204968944135
569,0.0,0.12121212121212399,0.18787878787879136,0.22424242424242372,0.2787878787878803,0.4000000000000043,0.8060606060606059,0.8787878787878814,1.0,0.45454545454545553
570,0.0,0.08588957055214855,0.17791411042944705,0.19631901840490784,0.2576687116564456,0.3803680981595103,0.7116564417177936,0.8650306748466245,1.0,0.41717791411043187
571,0.0,0.15748031496063272,0.27559055118110204,0.32283464566929254,0.38582677165354423,0.45669291338583,0.6850393700787415,0.8818897637795237,1.0,0.5196850393700817
572,0.0,0.11764705882352695,0.20588235294117216,0.24117647058823236,0.2941176470588226,0.3999999999999979,0.7176470588235291,0.8647058823529378,1.0,0.4529411764705882
573,0.0,0.1652892561983442,0.2727272727272767,0.3140495867768628,0.38842975206611474,0.462809917355374,0.6859504132231445,0.8925619834710748,1.0,0.5041322314049601
574,0.0,0.10062893081760971,0.1949685534591223,0.22012578616352194,0.2767295597484295,0.3710691823899365,0.7106918238993707,0.8679245283018824,1.0,0.42767295597484406
575,0.0,0.1290322580645162,0.20645161290322595,0.22580645161290339,0.30967741935483895,0.42580645161290315,0.7290322580645163,0.8580645161290321,1.0,0.4838709677419355
576,0.0,0.10135135135135143,0.20270270270270285,0.21621621621621637,0.29054054054054074,0.41216216216216245,0.7567567567567566,0.9256756756756757,1.0,0.4729729729729733
577,0.0,0.12080536912751687,0.2080536912751672,0.241610738255033,0.3087248322147646,0.4026845637583888,0.74496644295302,0.8791946308724832,1.0,0.46308724832214726
578,0.0,0.10112359550561685,0.1573033707865158,0.1685393258426956,0.31460674157303287,0.4943820224719095,0.4943820224719095,0.7415730337078649,1.0,0.573033707865168
579,0.0,0.13333333333333333,0.20666666666666741,0.24,0.3133333333333341,0.44,0.8,0.9666666666666659,1.0,0.5000000000000008
580,0.0,0.08163265306122455,0.183673469387756,0.2312925170068029,0.2993197278911567,0.39455782312925197,0.7414965986394556,0.8503401360544216,1.0,0.45578231292516963
581,0.0,0.11111111111111063,0.18300653594771135,0.20915032679738463,0.29411764705882343,0.3986928104575165,0.7516339869281055,0.9150326797385626,1.0,0.43790849673202636
582,0.0,0.10884353741496607,0.183673469387756,0.2312925170068029,0.2993197278911567,0.39455782312925197,0.7482993197278918,0.8503401360544216,1.0,0.4557823129251712
583,0.0,0.07382550335570401,0.17449664429530215,0.22147651006711352,0.29530201342281753,0.409395973154362,0.7315436241610737,0.859060402684563,1.0,0.4697986577181197
584,0.0,0.08571428571428585,0.19285714285714395,0.24285714285714324,0.32142857142857273,0.4214285714285729,0.7857142857142869,0.9357142857142864,1.0,0.4500000000000015
585,0.0,0.14492753623188429,0.2463768115942017,0.2463768115942017,0.3405797101449289,0.4347826086956529,0.8043478260869554,0.9710144927536232,1.0,0.5
586,0.0,0.1324503311258281,0.23178807947019991,0.2516556291390719,0.31788079470198743,0.4768211920529812,0.8344370860927156,1.0,1.0,0.4768211920529812
587,0.0,0.08450704225352126,0.19014084507042361,0.2183098591549307,0.30985915492957794,0.42957746478873227,0.7887323943661985,0.9647887323943669,1.0,0.4929577464788756
588,0.0,0.11920529801324382,0.21854304635761565,0.2649006622516562,0.3377483443708595,0.42384105960264995,0.7615894039735094,0.8741721854304626,1.0,0.4834437086092718
589,0.0,0.11643835616438297,0.19178082191780546,0.23972602739725835,0.3082191780821915,0.47260273972602734,0.732876712328766,0.8972602739726018,1.0,0.47260273972602734
590,0.0,0.13333333333333353,0.23333333333333442,0.24666666666666628,0.3133333333333345,0.43333333333333324,0.7533333333333337,0.8666666666666665,1.0,0.48666666666666664
591,0.0,0.10273972602739817,0.20547945205479332,0.23287671232876594,0.3219178082191763,0.4246575342465745,0.7739726027397265,0.9109589041095897,1.0,0.48630136986301215
592,0.0,0.11805555555555479,0.2222222222222222,0.23611111111110958,0.3124999999999992,0.4444444444444444,0.7638888888888874,0.9236111111111104,1.0,0.5
593,0.0,0.09150326797385483,0.18954248366013013,0.235294117647059,0.30718954248365815,0.4052287581699335,0.7320261437908473,0.882352941176469,1.0,0.46405228758169753
594,0.0,0.10344827586206981,0.20689655172413657,0.20689655172413657,0.296551724137932,0.406896551724139,0.7448275862068972,0.8827586206896558,1.0,0.4689655172413797
595,0.0,0.13513513513513514,0.23648648648648724,0.24999999999999925,0.3175675675675683,0.4391891891891884,0.8040540540540518,0.972972972972973,1.0,0.4999999999999985
596,0.0,0.09859154929577042,0.17605633802816592,0.2253521126760574,0.29577464788732377,0.4014084507042233,0.7535211267605677,0.9225352112676045,1.0,0.4366197183098565
597,0.0,0.08333333333333076,0.18749999999999575,0.23611111111111102,0.31250000000000117,0.4444444444444472,0.763888888888889,0.8888888888888882,1.0,0.5069444444444438
598,0.0,0.08264462809917883,0.11570247933884449,0.12396694214876458,0.23140495867768898,0.3471074380165335,0.7272727272727253,0.8842975206611555,1.0,0.40495867768595206
599,0.0,0.11971830985915158,0.21126760563379912,0.2253521126760574,0.3169014084507049,0.44366197183098566,0.8239436619718341,1.0,1.0,0.485915492957748
600,0.0,0.12162162162161448,0.3243243243243253,0.36486486486486747,0.513513513513506,0.8378378378378314,0.8243243243243253,0.8378378378378314,1.0,0.8378378378378314
601,0.0,0.14084507042253533,0.2323943661971833,0.24647887323943682,0.3380281690140848,0.45070422535211224,0.6549295774647884,0.8309859154929576,1.0,0.5140845070422532
602,0.0,0.1094890510948906,0.19708029197080307,0.2335766423357666,0.31386861313868636,0.4306569343065689,0.6423357664233573,0.8248175182481751,1.0,0.4890510948905105
603,0.0,0.12857142857142878,0.20000000000000032,0.22142857142857097,0.3142857142857148,0.44285714285714356,0.6571428571428581,0.8285714285714283,1.0,0.5071428571428571
604,0.0,0.09420289855072544,0.1956521739130443,0.2318840579710145,0.31159420289855155,0.4782608695652174,0.6594202898550733,0.8405797101449275,1.0,0.5434782608695661
605,0.0,0.14084507042253544,0.21126760563380315,0.25352112676056376,0.3239436619718315,0.4436619718309858,0.654929577464789,0.8309859154929575,1.0,0.5070422535211275
606,0.0,0.14084507042253544,0.24647887323943624,0.2676056338028173,0.34507042253521103,0.47183098591549294,0.654929577464789,0.8309859154929575,1.0,0.5211267605633811
607,0.0,0.1223021582733804,0.20143884892086314,0.23021582733812931,0.3165467625899278,0.43165467625899245,0.6474820143884903,0.8273381294964031,1.0,0.46043165467625863
608,0.0,0.10869565217391368,0.21739130434782736,0.22463768115942073,0.30434782608695765,0.47826086956521824,0.6449275362318855,0.8260869565217394,1.0,0.5434782608695652
609,0.0,0.10294117647058694,0.21323529411764694,0.22058823529411672,0.30147058823529427,0.4117647058823543,0.6397058823529408,0.8235294117647053,1.0,0.477941176470589
610,0.0,0.1111111111111122,0.22222222222222113,0.22962962962963102,0.30370370370370364,0.45925925925925876,0.637037037037037,0.8222222222222217,1.0,0.5111111111111115
611,0.0,0.1388888888888889,0.21527777777777854,0.23611111111111266,0.32638888888888967,0.45833333333333487,0.659722222222223,0.8333333333333334,1.0,0.5208333333333341
612,0.0,0.12781954887218305,0.2406015037593987,0.2406015037593987,0.3233082706766928,0.46616541353383667,0.6315789473684216,0.819548872180451,1.0,0.5338345864661667
613,0.0,0.13768115942028766,0.2391304347826083,0.2536231884057951,0.3478260869565223,0.5144927536231868,0.6449275362318843,0.8260869565217388,1.0,0.5797101449275371
614,0.0,0.14492753623188429,0.2536231884057951,0.2536231884057951,0.33333333333333226,0.5,0.7246376811594183,0.8260869565217388,1.0,0.5507246376811603
615,0.0,0.1259259259259221,0.23703703703703763,0.24444444444444094,0.31851851851852014,0.45185185185185217,0.6518518518518535,0.8222222222222217,1.0,0.5185185185185215
616,0.0,0.11278195488721564,0.22556390977443794,0.22556390977443794,0.3082706766917321,0.41353383458646403,0.6315789473684182,0.819548872180451,1.0,0.46616541353383667
617,0.0,0.14285714285714013,0.22142857142856975,0.24285714285714205,0.3357142857142844,0.47857142857143087,0.6500000000000029,0.8285714285714281,1.0,0.5428571428571414
618,0.0,0.10526315789473656,0.1879699248120299,0.23308270676691717,0.3157894736842105,0.42105263157894746,0.6315789473684215,0.8195488721804509,1.0,0.4887218045112784
619,0.0,0.11940298507462696,0.23134328358208975,0.23134328358208975,0.3059701492537316,0.4626865671641795,0.6567164179104483,0.8208955223880604,1.0,0.5298507462686571
620,0.0,0.14492753623188337,0.2536231884057965,0.2536231884057965,0.3333333333333328,0.46376811594202855,0.6666666666666664,0.8478260869565208,1.0,0.5289855072463756
621,0.0,0.13475177304964628,0.24113475177304983,0.2624113475177315,0.3404255319148939,0.46808510638297907,0.6524822695035466,0.8297872340425531,1.0,0.5319148936170225
622,0.0,0.14285714285714307,0.22857142857142893,0.27142857142857185,0.34999999999999976,0.44285714285714356,0.6714285714285709,0.8285714285714283,1.0,0.5071428571428571
623,0.0,0.12857142857142856,0.20714285714285793,0.22142857142857222,0.3142857142857143,0.4214285714285722,0.6642857142857135,0.8428571428571429,1.0,0.4857142857142857
624,0.0,0.14925373134328382,0.26119402985074586,0.2686567164179109,0.3432835820895528,0.4626865671641799,0.6641791044776122,0.8507462686567162,1.0,0.5298507462686568
625,0.0,0.11594202898550743,0.22463768115942145,0.2391304347826083,0.31884057971014546,0.4275362318840595,0.6666666666666677,0.8260869565217388,1.0,0.4927536231884066
626,0.0,0.13669064748201507,0.21582733812949784,0.23021582733812931,0.32374100719424675,0.42446043165467673,0.6474820143884903,0.8273381294964031,1.0,0.4892086330935248
627,0.0,0.11851851851851881,0.20740740740740793,0.24444444444444421,0.31851851851852014,0.44444444444444553,0.637037037037037,0.8222222222222251,1.0,0.5111111111111115
628,0.0,0.14705882352941177,0.2573529411764714,0.27205882352941096,0.35294117647058826,0.46323529411764786,0.639705882352942,0.8235294117647058,1.0,0.5294117647058824
629,0.0,0.1176470588235298,0.20588235294117388,0.22058823529411672,0.3161764705882339,0.49264705882352855,0.6397058823529408,0.8235294117647053,1.0,0.5514705882352935
630,0.0,0.14814814814814803,0.23703703703703685,0.2444444444444434,0.3407407407407421,0.5037037037037033,0.6370370370370382,0.8222222222222224,1.0,0.5555555555555559
631,0.0,0.1438848920863313,0.22302158273381428,0.24460431654676157,0.3381294964028761,0.49640287769784214,0.6474820143884892,0.8273381294964025,1.0,0.5611510791366904
632,0.0,0.14598540145985414,0.25547445255474555,0.25547445255474555,0.343065693430658,0.518248175182483,0.6788321167883209,0.861313868613141,1.0,0.5839416058394166
633,0.0,0.143884892086334,0.24460431654676718,0.2589928057553987,0.35251798561151293,0.4676258992805776,0.6474820143884935,0.8273381294964031,1.0,0.5323741007194288
634,0.0,0.13422818791946617,0.2281879194630919,0.2281879194630919,0.31543624161074224,0.4295302013422822,0.6711409395973189,0.8389261744966442,1.0,0.4899328859060429
635,0.0,0.12765957446808993,0.23404255319149192,0.2624113475177362,0.3475177304964565,0.4326241134751769,0.6524822695035498,0.8297872340425531,1.0,0.49645390070922185
636,0.0,0.2222222222222225,0.25555555555555587,0.25555555555555587,0.36666666666666714,0.5555555555555562,0.5555555555555562,0.7777777777777788,1.0,0.6555555555555563
637,0.0,0.05833333333333339,0.1416666666666668,0.4750000000000004,0.5500000000000005,0.6000000000000005,0.7583333333333341,0.8749999999999999,1.0,0.6750000000000006
638,0.0,0.09009009009009018,0.22522522522522445,0.4414414414414409,0.5585585585585591,0.6036036036036032,0.6036036036036032,0.7837837837837835,1.0,0.6846846846846854
639,0.0,0.10606060606060473,0.21212121212121282,0.4696969696969696,0.6666666666666655,0.8181818181818176,0.8181818181818176,0.9090909090909088,1.0,0.9090909090909088
640,0.0,0.06849315068493292,0.14383561643835824,0.20547945205479573,0.2876712328767134,0.45205479452054875,0.8561643835616418,0.9452054794520549,1.0,0.45205479452054875
641,0.0,0.27027027027026945,0.37837837837837723,0.37837837837837723,0.5540540540540569,0.6621621621621647,0.6621621621621647,0.8378378378378383,1.0,0.7837837837837844
642,0.0,0.04285714285714141,0.09999999999999873,0.39285714285714174,0.48571428571428726,0.6571428571428592,0.7142857142857165,0.8285714285714281,1.0,0.6571428571428592
643,0.0,0.11016949152542299,0.16101694915253986,0.32203389830508344,0.4322033898305065,0.4915254237288126,0.703389830508473,0.7966101694915251,1.0,0.5508474576271187
644,0.0,0.1526717557251907,0.2671755725190846,0.503816793893131,0.6030534351145042,0.7786259541984709,0.7786259541984709,0.9465648854961825,1.0,0.8473282442748092
645,0.0,0.062499999999998786,0.15624999999999975,0.37500000000000105,0.4562500000000006,0.5937500000000023,0.7562500000000014,0.912500000000004,1.0,0.649999999999999
646,0.0,0.13888888888889198,0.24305555555555633,0.2708333333333372,0.3124999999999992,0.4583333333333318,0.7847222222222245,0.9583333333333318,1.0,0.5069444444444468
647,0.0,0.2150537634408557,0.2150537634408557,0.2258064516129023,0.36559139784946043,0.4946236559139815,0.5806451612903256,0.8494623655913953,1.0,0.5913978494623627
648,0.0,0.047619047619049296,0.1666666666666655,0.3650793650793662,0.4365079365079401,0.507936507936507,0.6428571428571443,0.8095238095238099,1.0,0.5634920634920669
649,0.0,0.0071428571428532005,0.04999999999999778,0.3642857142857099,0.45714285714285857,0.5071428571428563,0.6714285714285688,0.8500000000000003,1.0,0.5714285714285733
650,0.0,0.1612903225806453,0.28225806451612884,0.3548387096774192,0.4112903225806451,0.46774193548387094,0.6048387096774195,0.8064516129032256,1.0,0.5
651,0.0,0.12499999999999963,0.20535714285714257,0.32142857142857123,0.39285714285714274,0.5089285714285714,0.5892857142857144,0.7857142857142855,1.0,0.5535714285714286
652,0.0,0.142857142857143,0.2589285714285717,0.28571428571428503,0.4017857142857137,0.46428571428571375,0.5982142857142854,0.8214285714285713,1.0,0.5178571428571423
653,0.0,0.13913043478260884,0.2695652173913036,0.3130434782608689,0.3826086956521733,0.4608695652173908,0.6173913043478257,0.7913043478260867,1.0,0.5391304347826082
654,0.0,0.12068965517241295,0.20689655172413718,0.31034482758620624,0.37931034482758563,0.44827586206896497,0.5775862068965513,0.7931034482758619,1.0,0.4913793103448271
655,0.0,0.17241379310344748,0.24137931034482685,0.31034482758620624,0.42241379310344773,0.5344827586206892,0.6379310344827582,0.8275862068965516,1.0,0.5948275862068952
656,0.0,0.1016949152542373,0.1694915254237288,0.29661016949152635,0.3559322033898305,0.41525423728813654,0.5847457627118635,0.7966101694915254,1.0,0.4915254237288136
657,0.0,0.1130434782608687,0.24347826086956545,0.29565217391304377,0.3652173913043463,0.42608695652173856,0.6347826086956518,0.7913043478260867,1.0,0.504347826086955
658,0.0,0.05357142857142868,0.16071428571428603,0.21428571428571272,0.3303571428571425,0.4017857142857141,0.5625000000000001,0.7857142857142853,1.0,0.4821428571428561
659,0.0,0.1639344262295085,0.2377049180327864,0.3360655737704915,0.4016393442622949,0.45901639344262196,0.5983606557377051,0.8032786885245898,1.0,0.5327868852459017
660,0.0,0.15702479338842898,0.27272727272727204,0.34710743801652927,0.41322314049586817,0.6033057851239666,0.661157024793389,0.8016528925619832,1.0,0.6280991735537196
661,0.0,0.15748031496063006,0.2047244094488191,0.33858267716535373,0.4094488188976382,0.4645669291338578,0.6141732283464573,0.8110236220472439,1.0,0.5354330708661422
662,0.0,0.1271186440677959,0.2288135593220334,0.31355932203389797,0.3728813559322041,0.4322033898305083,0.5847457627118645,0.796610169491527,1.0,0.5084745762711874
663,0.0,0.10526315789473704,0.23684210526315544,0.29824561403508637,0.3684210526315777,0.4298245614035086,0.5789473684210518,0.7894736842105259,1.0,0.47368421052631476
664,0.0,0.1626016260162606,0.2764227642276412,0.3414634146341455,0.4065040650406497,0.5365853658536582,0.6016260162601624,0.8048780487804873,1.0,0.6097560975609746
665,0.0,0.1626016260162606,0.28455284552845694,0.3495934959349612,0.41463414634146545,0.4634146341463418,0.6016260162601624,0.8048780487804873,1.0,0.5365853658536582
666,0.0,0.1238938053097366,0.2566371681415961,0.3185840707964605,0.3893805309734517,0.4601769911504429,0.6283185840707981,0.8495575221238947,1.0,0.48672566371681564
667,0.0,0.15873015873015844,0.23809523809523944,0.3174603174603169,0.3968253968253979,0.4523809523809542,0.6111111111111092,0.8095238095238099,1.0,0.5238095238095246
668,0.0,0.1639344262295085,0.2868852459016408,0.34426229508196604,0.4098360655737694,0.4672131147540983,0.5983606557377051,0.8032786885245898,1.0,0.5409836065573762
669,0.0,0.1639344262295085,0.24590163934426093,0.34426229508196604,0.4098360655737694,0.4672131147540983,0.6229508196721286,0.827868852459017,1.0,0.5409836065573762
670,0.0,0.12068965517241188,0.18103448275861972,0.27586206896551724,0.3879310344827577,0.5948275862068956,0.5948275862068956,0.8017241379310335,1.0,0.6379310344827567
671,0.0,0.09649122807017622,0.228070175438598,0.28070175438596434,0.35087719298245545,0.42105263157894657,0.5701754385964891,0.7894736842105268,1.0,0.49999999999999806
672,0.0,0.1709401709401711,0.24786324786324715,0.3418803418803384,0.41880341880341826,0.521367521367521,0.6239316239316236,0.8376068376068365,1.0,0.5811965811965779
673,0.0,0.16129032258064516,0.22580645161290322,0.33870967741935665,0.4032258064516147,0.5241935483870959,0.653225806451612,0.8306451612903235,1.0,0.5967741935483889
674,0.0,0.1487603305785107,0.22314049586776605,0.2809917355371885,0.38016528925619686,0.44628099173553576,0.6033057851239666,0.8016528925619832,1.0,0.4876033057851217
675,0.0,0.14655172413793063,0.2758620689655183,0.30172413793103275,0.39655172413793066,0.4655172413793102,0.6206896551724161,0.8362068965517264,1.0,0.5431034482758613
676,0.0,0.15447154471544486,0.2764227642276412,0.3333333333333333,0.39837398373983757,0.4552845528455297,0.6260162601626024,0.8048780487804873,1.0,0.5203252032520339
677,0.0,0.15254237288135492,0.22881355932203237,0.32203389830508466,0.40677966101695145,0.46610169491525405,0.5847457627118667,0.7966101694915243,1.0,0.5254237288135604
678,0.0,0.1507936507936514,0.2698412698412676,0.3015873015873028,0.40476190476190493,0.4682539682539683,0.6825396825396831,0.8095238095238099,1.0,0.5396825396825422
679,0.0,0.15833333333333427,0.2833333333333315,0.3083333333333324,0.4166666666666648,0.5083333333333324,0.6583333333333306,0.8666666666666667,1.0,0.5749999999999991
680,0.0,0.14634146341463328,0.2601626016260179,0.3414634146341467,0.4065040650406512,0.4634146341463399,0.6097560975609732,0.8048780487804865,1.0,0.48780487804878
681,0.0,0.16129032258064216,0.22580645161290044,0.3225806451612915,0.3951612903225776,0.45967741935483586,0.6209677419354852,0.8225806451612879,1.0,0.5080645161290314
682,0.0,0.16260162601625758,0.2845528455284508,0.33333333333333093,0.3983739837398354,0.4634146341463399,0.6341463414634132,0.8130081300813023,1.0,0.5121951219512201
683,0.0,0.16260162601626363,0.24390243902439182,0.3414634146341515,0.40650406504065545,0.46341463414634376,0.6097560975609759,0.804878048780488,1.0,0.49593495934959214
684,0.0,0.15596330275229373,0.2385321100917431,0.32110091743119273,0.39449541284403683,0.467889908256881,0.6238532110091745,0.8532110091743123,1.0,0.5321100917431193
685,0.0,0.14545454545454561,0.2181818181818179,0.2545454545454543,0.3727272727272726,0.4909090909090909,0.672727272727273,0.8454545454545453,1.0,0.5272727272727273
686,0.0,0.11864406779660987,0.19491525423728795,0.3220338983050847,0.3813559322033899,0.46610169491525444,0.5847457627118647,0.7966101694915261,1.0,0.5423728813559325
687,0.0,0.1531531531531533,0.20720720720720742,0.3243243243243247,0.3963963963963968,0.45945945945945993,0.6216216216216223,0.7837837837837845,1.0,0.504504504504505
688,0.0,0.17241379310344845,0.2500000000000002,0.3362068965517245,0.4224137931034487,0.5258620689655178,0.6293103448275869,0.8448275862068964,1.0,0.5603448275862074
689,0.0,0.16666666666666682,0.29166666666666696,0.36666666666666703,0.43333333333333374,0.5000000000000004,0.6749999999999997,0.8333333333333331,1.0,0.5583333333333329
690,0.0,0.16964285714285648,0.30357142857142916,0.32142857142857206,0.42857142857142944,0.6428571428571441,0.6517857142857146,0.8125000000000007,1.0,0.7142857142857157
691,0.0,0.16216216216216234,0.21621621621621642,0.2972972972972986,0.37837837837837873,0.5315315315315331,0.6576576576576593,0.8108108108108116,1.0,0.6126126126126132
692,0.0,0.1724137931034486,0.25862068965517293,0.3448275862068972,0.41379310344827663,0.4741379310344827,0.5775862068965518,0.7931034482758617,1.0,0.5344827586206907
693,0.0,0.16393442622950818,0.2868852459016403,0.3770491803278688,0.4426229508196721,0.5573770491803278,0.6967213114754089,0.8032786885245902,1.0,0.6229508196721312
694,0.0,0.1626016260162603,0.25203252032520257,0.3252032520325206,0.43089430894308894,0.5609756097560972,0.6666666666666654,0.8617886178861779,1.0,0.6178861788617873
695,0.0,0.17543859649122842,0.24561403508771784,0.3508771929824549,0.4122807017543858,0.561403508771929,0.7105263157894741,0.8245614035087716,1.0,0.6228070175438599
696,0.0,0.11403508771929727,0.16666666666666569,0.30701754385964813,0.37719298245613936,0.5614035087719298,0.5964912280701754,0.8157894736842095,1.0,0.6403508771929814
697,0.0,0.13793103448275862,0.2586206896551705,0.353448275862068,0.41379310344827586,0.5172413793103449,0.6034482758620671,0.7931034482758621,1.0,0.5689655172413774
698,0.0,0.1623931623931597,0.22222222222222054,0.23076923076922815,0.3418803418803422,0.41025641025641063,0.6324786324786312,0.7948717948717947,1.0,0.46153846153846007
699,0.0,0.11320754716981156,0.18867924528301927,0.2924528301886809,0.3584905660377387,0.4622641509433961,0.5849056603773618,0.8207547169811349,1.0,0.5471698113207579
700,0.0,0.12820512820512928,0.25641025641025855,0.27350427350427375,0.384615384615384,0.4786324786324791,0.5811965811965818,0.7948717948717947,1.0,0.5470085470085475
701,0.0,0.07017543859649136,0.1929824561403532,0.271929824561405,0.3684210526315816,0.5701754385964913,0.5964912280701766,0.8157894736842112,1.0,0.6228070175438618
702,0.0,0.16806722689075615,0.22689075630252173,0.34453781512604914,0.41176470588235164,0.5294117647058828,0.6722689075630246,0.8151260504201664,1.0,0.5966386554621852
703,0.0,0.16071428571428437,0.24107142857142655,0.33928571428571364,0.41071428571428537,0.5446428571428583,0.5892857142857146,0.8125000000000002,1.0,0.6250000000000004
704,0.0,0.13333333333333333,0.21666666666666481,0.32499999999999724,0.3916666666666639,0.5166666666666648,0.6499999999999981,0.8,1.0,0.5916666666666639
705,0.0,0.1724137931034483,0.2586206896551705,0.31896551724137834,0.4051724137931044,0.4913793103448266,0.5862068965517241,0.7931034482758621,1.0,0.560344827586206
706,0.0,0.1363636363636336,0.27272727272727126,0.3454545454545441,0.4090909090909089,0.48181818181818176,0.5999999999999992,0.8272727272727259,1.0,0.5545454545454547
707,0.0,0.14545454545454575,0.28181818181817936,0.28181818181817936,0.4000000000000008,0.47272727272727366,0.6727272727272721,0.8363636363636381,1.0,0.5363636363636344
708,0.0,0.15652173913043657,0.28695652173912917,0.3043478260869572,0.4000000000000015,0.4695652173913058,0.6521739130434786,0.8695652173913035,1.0,0.5043478260869579
709,0.0,0.1739130434782607,0.26086956521739296,0.2956521739130451,0.4086956521739136,0.4695652173913058,0.6347826086956506,0.8521739130434756,1.0,0.5391304347826101
710,0.0,0.10619469026548684,0.23893805309734634,0.3097345132743376,0.3716814159292059,0.5575221238938068,0.6283185840707981,0.7964601769911492,1.0,0.5929203539823025
711,0.0,0.14035087719298217,0.26315789473684353,0.33333333333333465,0.39473684210526533,0.5350877192982475,0.6403508771929802,0.8596491228070178,1.0,0.614035087719295
712,0.0,0.07017543859649082,0.20175438596491596,0.2719298245614068,0.34210526315789763,0.4210526315789449,0.6228070175438609,0.7894736842105275,1.0,0.473684210526315
713,0.0,0.07476635514018684,0.13084112149532903,0.28037383177570274,0.35514018691588956,0.42056074766354995,0.5420560747663525,0.7757009345794394,1.0,0.4859813084112186
714,0.0,0.16393442622951213,0.2868852459016408,0.3442622950819733,0.4016393442622985,0.46721311475410193,0.5983606557377087,0.803278688524597,1.0,0.5245901639344271
715,0.0,0.15126050420167922,0.27731092436975147,0.3361344537815135,0.39495798319328307,0.4621848739495858,0.6050420168067244,0.7983193277310994,1.0,0.5378151260504217
716,0.0,0.11111111111111477,0.2037037037037049,0.30555555555555736,0.37962962962963115,0.45370370370370494,0.6018518518518524,0.833333333333336,1.0,0.537037037037041
717,0.0,0.18691588785046717,0.32710280373831774,0.5233644859813082,0.6074766355140186,0.7009345794392521,0.7009345794392521,0.7850467289719625,1.0,0.7850467289719625
718,0.0,0.09000000000000005,0.24000000000000013,0.3600000000000002,0.45000000000000023,0.5000000000000002,0.5100000000000002,0.7599999999999999,1.0,0.5899999999999997
719,0.0,0.0068493150684931555,0.06849315068493156,0.34931506849315097,0.43835616438356123,0.5273972602739723,0.7123287671232874,0.8835616438356163,1.0,0.5890410958904106
720,0.0,0.1307189542483661,0.22875816993464068,0.3790849673202617,0.41176470588235325,0.5032679738562088,0.6797385620915031,0.8431372549019607,1.0,0.5620915032679735
721,0.0,0.18348623853211027,0.321100917431193,0.5963302752293584,0.697247706422019,0.7798165137614687,0.7798165137614687,0.9082568807339448,1.0,0.8623853211009173
722,0.0,0.10582010582010588,0.17989417989418,0.37037037037037057,0.42328042328042353,0.4550264550264553,0.74074074074074,0.8730158730158729,1.0,0.49206349206349176
723,0.0,0.13157894736842105,0.23026315789473759,0.3355263157894744,0.40131578947368496,0.47368421052631576,0.7697368421052624,0.9342105263157895,1.0,0.5263157894736842
724,0.0,0.21978021978022005,0.34065934065933984,0.34065934065933984,0.4175824175824181,0.6373626373626381,0.6373626373626381,0.7912087912087922,1.0,0.736263736263736
725,0.0,0.13513513513513553,0.23648648648648496,0.25,0.3243243243243253,0.46621621621621684,0.8310810810810814,1.0,1.0,0.5270270270270271
726,0.0,0.0833333333333311,0.19696969696969596,0.4621212121212128,0.5606060606060608,0.7272727272727297,0.7272727272727297,0.8181818181818209,1.0,0.7954545454545473
727,0.0,0.22988505747126525,0.4022988505747104,0.49425287356321645,0.5747126436781606,0.7356321839080436,0.7356321839080436,0.8390804597701169,1.0,0.8390804597701169
728,0.0,0.08609271523178753,0.18543046357615936,0.32450331125827814,0.41059602649006566,0.4635761589403969,0.6754966887417219,0.8410596026490063,1.0,0.5231788079470188
