,ECG_P_Onsets,ECG_P_Peaks,ECG_P_Offsets,ECG_Q_Peaks,ECG_R_Peaks,ECG_S_Peaks,ECG_T_Onsets,ECG_T_Peaks,ECG_T_Offsets,ECG_R_Offsets
0,0.0,0.07831325301204826,0.1686746987951809,0.2710843373493975,0.3493975903614458,0.493975903614458,0.7710843373493977,0.8554216867469882,1.0,0.5481927710843376
1,0.0,0.08433734939759041,0.174698795180723,0.2771084337349396,0.3554216867469879,0.5,0.7771084337349397,0.8554216867469878,1.0,0.5180722891566265
2,0.0,0.07975460122699392,0.1717791411042946,0.2822085889570554,0.3619631901840493,0.5092024539877297,0.7914110429447851,0.8588957055214723,1.0,0.5644171779141102
3,0.0,0.06918238993710697,0.16352201257861645,0.2830188679245285,0.36477987421383673,0.5157232704402512,0.6918238993710689,0.8490566037735848,1.0,0.5157232704402512
4,0.0,0.13513513513513523,0.23648648648648665,0.3581081081081084,0.4459459459459463,0.6081081081081078,0.716216216216216,0.8378378378378377,1.0,0.6081081081081078
5,0.0,0.11904761904761912,0.20833333333333348,0.41666666666666696,0.4940476190476194,0.6249999999999998,0.732142857142857,0.8571428571428571,1.0,0.6488095238095236
6,0.0,0.11494252873563233,0.20114942528735594,0.3850574712643677,0.45977011494252934,0.5977011494252881,0.7183908045977014,0.8620689655172424,1.0,0.6321839080459778
7,0.0,0.1307189542483663,0.2287581699346403,0.38562091503267987,0.4705882352941172,0.6274509803921567,0.7385620915032689,0.8431372549019619,1.0,0.6601307189542491
8,0.0,0.10975609756097576,0.1707317073170734,0.4146341463414626,0.49390243902439024,0.6402439024390246,0.7378048780487808,0.8536585365853656,1.0,0.6402439024390246
9,0.0,0.11585365853658484,0.16463414634146295,0.42073170731707304,0.49999999999999933,0.6463414634146337,0.7256097560975613,0.8536585365853656,1.0,0.6463414634146337
10,0.0,0.11299435028248608,0.19774011299435001,0.39548022598870003,0.4689265536723166,0.6045197740113,0.7288135593220346,0.864406779661018,1.0,0.6384180790960458
11,0.0,0.1290322580645162,0.22580645161290266,0.3806451612903221,0.464516129032257,0.6193548387096764,0.7419354838709675,0.8451612903225806,1.0,0.6193548387096764
12,0.0,0.14084507042253544,0.24647887323943624,0.4084507042253512,0.5,0.6690140845070425,0.7746478873239433,0.9225352112676063,1.0,0.6690140845070425
13,0.0,0.05714285714285714,0.16428571428571348,0.3357142857142849,0.42857142857142855,0.5857142857142857,0.7071428571428563,0.8499999999999992,1.0,0.6499999999999992
14,0.0,0.12422360248447196,0.21739130434782664,0.4223602484472033,0.5031055900621122,0.6521739130434785,0.7515527950310561,0.8509316770186336,1.0,0.6521739130434785
15,0.0,0.06521739130434713,0.17391304347826114,0.3478260869565223,0.4420289855072463,0.6159420289855074,0.7608695652173917,0.9420289855072462,1.0,0.6594202898550711
16,0.0,0.11594202898550743,0.22463768115942145,0.36956521739130577,0.4637681159420297,0.6376811594202909,0.7608695652173917,0.891304347826086,1.0,0.6376811594202909
17,0.0,0.11904761904761936,0.17857142857142771,0.41666666666666646,0.49404761904761835,0.6369047619047616,0.7321428571428571,0.8571428571428568,1.0,0.6845238095238093
18,0.0,0.055944055944056076,0.160839160839162,0.3286713286713302,0.4195804195804206,0.5804195804195825,0.6923076923076947,0.8391608391608412,1.0,0.6293706293706293
19,0.0,0.13333333333333353,0.23333333333333145,0.4199999999999984,0.5066666666666674,0.6666666666666676,0.7733333333333344,0.8866666666666673,1.0,0.6666666666666676
20,0.0,0.09770114942528685,0.18390804597701174,0.310344827586206,0.38505747126436896,0.5172413793103442,0.7183908045977014,0.8620689655172412,1.0,0.5632183908045971
21,0.0,0.1418439716312058,0.24822695035461093,0.4113475177304984,0.5035460992907813,0.6737588652482283,0.8014184397163119,0.9290780141843987,1.0,0.6737588652482283
22,0.0,0.10000000000000159,0.20714285714285635,0.3785714285714278,0.47142857142857303,0.6357142857142849,0.7499999999999992,0.8857142857142857,1.0,0.6785714285714294
23,0.0,0.07103825136611974,0.1530054644808746,0.278688524590165,0.34972677595628476,0.4808743169398916,0.7322404371584701,0.8688524590163932,1.0,0.5300546448087435
24,0.0,0.1388888888888889,0.24305555555555633,0.39583333333333254,0.48611111111111266,0.6527777777777793,0.7708333333333341,0.8958333333333326,1.0,0.6527777777777793
25,0.0,0.07909604519774141,0.16384180790960398,0.29378531073446346,0.3672316384180787,0.5028248587570618,0.7796610169491518,0.8644067796610169,1.0,0.5028248587570618
26,0.0,0.07936507936508,0.15343915343915293,0.26455026455026587,0.3333333333333341,0.45502645502645644,0.7407407407407411,0.8730158730158729,1.0,0.5026455026455036
27,0.0,0.1724137931034483,0.1724137931034483,0.18103448275861972,0.29310344827586016,0.4999999999999981,0.6465517241379319,0.8189655172413802,1.0,0.4999999999999981
28,0.0,0.13178294573643634,0.24806201550387533,0.4418604651162805,0.542635658914729,0.7286821705426355,0.7286821705426355,0.8914728682170528,1.0,0.798449612403103
29,0.0,0.005988023952092496,0.047904191616761245,0.3053892215568822,0.3832335329341272,0.5269461077844269,0.8742514970059885,1.0,1.0,0.5269461077844269
30,0.0,0.13138686131386754,0.13138686131386754,0.1386861313868562,0.23357664233576736,0.4087591240875929,0.6423357664233538,0.8248175182481745,1.0,0.4087591240875929
31,0.0,0.11834319526627231,0.20710059171597653,0.4142011834319527,0.46745562130177526,0.6094674556213017,0.7100591715976332,0.8579881656804735,1.0,0.6627218934911242
32,0.0,0.12048192771084346,0.21084337349397606,0.40361445783132555,0.4638554216867473,0.6084337349397595,0.7048192771084342,0.8554216867469878,1.0,0.662650602409639
33,0.0,0.12500000000000008,0.21875000000000014,0.38125000000000026,0.4437500000000003,0.5937500000000004,0.6937499999999998,0.8499999999999999,1.0,0.6500000000000005
34,0.0,0.10999999999999889,0.26,0.20999999999999888,0.24,0.3699999999999989,0.5099999999999989,0.76,1.0,0.46
35,0.0,0.13445378151260517,0.1764705882352952,0.1764705882352952,0.26050420168067345,0.4621848739495812,0.5882352941176476,0.7983193277310942,1.0,0.5378151260504207
36,0.0,0.034246575342465044,0.1369863013698617,0.3219178082191778,0.39041095890410943,0.5547945205479453,0.6643835616438358,0.8356164383561642,1.0,0.616438356164383
37,0.0,0.0915492957746488,0.16197183098591653,0.30281690140845197,0.3732394366197197,0.5422535211267622,0.6549295774647905,0.8309859154929575,1.0,0.6056338028169024
38,0.0,0.08275862068965524,0.18620689655172198,0.3241379310344807,0.3862068965517244,0.5517241379310349,0.6620689655172419,0.8344827586206895,1.0,0.6137931034482755
39,0.0,0.15573770491803035,0.15573770491803035,0.1639344262295085,0.2704918032786881,0.4672131147540983,0.5983606557377051,0.8032786885245898,1.0,0.5409836065573762
40,0.0,0.06849315068493292,0.17123287671233078,0.3287671232876707,0.38356164383561586,0.5479452054794512,0.6643835616438338,0.8356164383561646,1.0,0.6095890410958887
41,0.0,0.07051282051281858,0.14743589743589572,0.3717948717948714,0.42948717948717857,0.5833333333333328,0.6858974358974357,0.8461538461538457,1.0,0.64102564102564
42,0.0,0.1322314049586778,0.1900826446280966,0.1900826446280966,0.2644628099173556,0.46280991735536864,0.5950413223140465,0.8016528925619832,1.0,0.5371900826446276
43,0.0,0.1388888888888889,0.18750000000000078,0.18750000000000078,0.26388888888888734,0.3680555555555548,0.8611111111111112,0.9166666666666666,1.0,0.430555555555554
44,0.0,0.13475177304964628,0.2411347517730514,0.2411347517730514,0.29787234042553373,0.3829787234042572,0.751773049645389,0.8297872340425531,1.0,0.446808510638299
45,0.0,0.09734513274336352,0.16814159292035447,0.16814159292035447,0.23893805309734542,0.45132743362831823,0.5929203539823001,0.7876106194690272,1.0,0.530973451327436
46,0.0,0.1869158878504645,0.28037383177569675,0.28037383177569675,0.3551401869158842,0.4205607476635534,0.654205607476634,0.8878504672897229,1.0,0.49532710280374087
47,0.0,0.006896551724137941,0.08275862068965453,0.35172413793103424,0.44137931034482747,0.5724137931034476,0.6620689655172416,0.8344827586206894,1.0,0.6344827586206898
48,0.0,0.020833333333332593,0.1250000000000002,0.3472222222222212,0.4374999999999999,0.5694444444444438,0.6597222222222224,0.833333333333333,1.0,0.6319444444444446
49,0.0,0.05925925925925921,0.15555555555555461,0.3185185185185191,0.4000000000000013,0.5407407407407395,0.6370370370370382,0.8222222222222224,1.0,0.6074074074074085
50,0.0,0.26666666666666783,0.34666666666666524,0.34666666666666524,0.5066666666666659,0.5733333333333315,0.34666666666666524,0.6799999999999986,1.0,0.6799999999999986
51,0.0,0.12269938650306773,0.21472392638036922,0.4294478527607357,0.509202453987729,0.6257668711656441,0.6993865030674847,0.8527607361963188,1.0,0.6809815950920239
52,0.0,0.16260162601626002,0.260162601626016,0.260162601626016,0.35772357723577203,0.51219512195122,0.6016260162601639,0.804878048780488,1.0,0.5853658536585361
53,0.0,0.053691275167785275,0.15436241610738044,0.3892617449664418,0.4697986577181197,0.5973154362416104,0.6711409395973129,0.8389261744966442,1.0,0.6577181208053682
54,0.0,0.17391304347826114,0.33333333333332904,0.33333333333332904,0.405797101449276,0.4927536231884034,0.4927536231884034,0.7971014492753588,1.0,0.594202898550724
55,0.0,0.05925925925925931,0.1555555555555565,0.3185185185185196,0.40000000000000036,0.540740740740742,0.6370370370370375,0.8222222222222237,1.0,0.607407407407408
56,0.0,0.26666666666666705,0.3466666666666672,0.3466666666666672,0.5066666666666674,0.5733333333333357,0.3466666666666672,0.6800000000000025,1.0,0.6800000000000025
57,0.0,0.12269938650306757,0.21472392638036755,0.4294478527607351,0.5092024539877297,0.6257668711656432,0.6993865030674837,0.8527607361963189,1.0,0.6809815950920243
58,0.0,0.16260162601626002,0.260162601626016,0.260162601626016,0.35772357723577203,0.51219512195122,0.6016260162601621,0.804878048780488,1.0,0.5853658536585361
59,0.0,0.053691275167785275,0.15436241610738044,0.3892617449664418,0.4697986577181197,0.5973154362416104,0.6711409395973129,0.8389261744966442,1.0,0.6577181208053682
60,0.0,0.17391304347826114,0.33333333333332904,0.33333333333332904,0.405797101449276,0.4927536231884034,0.4927536231884034,0.7971014492753588,1.0,0.594202898550724
61,0.0,0.05142857142857089,0.0971428571428567,0.33714285714285586,0.3885714285714268,0.49714285714285616,0.8285714285714295,0.9085714285714284,1.0,0.5199999999999991
62,0.0,0.14655172413793335,0.2672413793103486,0.5775862068965505,0.6293103448275866,0.7327586206896514,0.7327586206896514,0.8965517241379276,1.0,0.77586206896552
63,0.0,0.03351955307262574,0.11731843575419008,0.31284916201117297,0.385474860335196,0.4636871508379894,0.7430167597765373,0.8659217877094982,1.0,0.5139664804469274
64,0.0,0.034482758620689696,0.09195402298850587,0.28735632183907955,0.3620689655172412,0.4482758620689648,0.7183908045977014,0.8620689655172412,1.0,0.5
65,0.0,0.03409090909090909,0.07954545454545454,0.29545454545454547,0.3693181818181812,0.45454545454545453,0.7272727272727273,0.8636363636363636,1.0,0.5056818181818176
66,0.0,0.040229885057471854,0.12643678160919652,0.2873563218390814,0.36206896551724155,0.44827586206896625,0.7298850574712641,0.8620689655172415,1.0,0.5
67,0.0,0.14615384615384724,0.25384615384615344,0.4307692307692315,0.4846153846153863,0.6461538461538473,0.7615384615384637,0.815384615384615,1.0,0.6769230769230781
68,0.0,0.022727272727272783,0.10795454545454383,0.2954545454545462,0.3693181818181821,0.4545454545454557,0.7329545454545466,0.8636363636363633,1.0,0.5056818181818188
69,0.0,0.005714285714285091,0.09142857142857161,0.2914285714285701,0.36571428571428644,0.457142857142858,0.7314285714285729,0.8628571428571425,1.0,0.5085714285714289
70,0.0,0.12413793103448133,0.15862068965517023,0.15862068965517023,0.2482758620689657,0.3586206896551727,0.7172413793103454,0.8344827586206895,1.0,0.42068965517241336
71,0.0,0.13986013986014242,0.13986013986014242,0.1468531468531517,0.2377622377622415,0.27972027972027863,0.7202797202797213,0.8321678321678329,1.0,0.34265734265734366
72,0.0,0.32203389830508533,0.5762711864406791,0.4067796610169499,0.49152542372881447,0.5762711864406791,0.5762711864406791,0.7118644067796605,1.0,0.7118644067796605
73,0.0,0.11494252873563233,0.20114942528735594,0.35632183908045895,0.4310344827586206,0.5459770114942529,0.8563218390804602,1.0,1.0,0.5804597701149427
74,0.0,0.16249999999999906,0.20000000000000057,0.2124999999999992,0.37500000000000105,0.43749999999999983,0.5750000000000016,0.862500000000001,1.0,0.5000000000000014
75,0.0,0.1212121212121213,0.21212121212121293,0.33939393939393964,0.41818181818181777,0.5212121212121216,0.8484848484848491,1.0,1.0,0.5757575757575755
76,0.0,0.1370967741935475,0.25806451612903225,0.379032258064517,0.4435483870967751,0.6048387096774203,0.8467741935483862,0.8951612903225815,1.0,0.6612903225806434
77,0.0,0.16867469879517782,0.2409638554216864,0.2409638554216864,0.36144578313252695,0.42168674698795255,0.6385542168674677,0.7710843373493965,1.0,0.4819277108433728
78,0.0,0.16000000000000014,0.2240000000000002,0.2240000000000002,0.27199999999999847,0.4480000000000004,0.815999999999999,0.8719999999999999,1.0,0.49599999999999866
79,0.0,0.0962962962962954,0.13333333333333486,0.13333333333333486,0.1925925925925941,0.37037037037037174,0.8592592592592585,0.9481481481481474,1.0,0.4370370370370375
80,0.0,0.15517241379310537,0.2672413793103458,0.3448275862068966,0.4051724137931044,0.560344827586206,0.6637931034482749,0.8275862068965517,1.0,0.6206896551724138
81,0.0,0.08333333333333223,0.17261904761904742,0.32142857142857095,0.3988095238095229,0.5297619047619055,0.8511904761904765,1.0,1.0,0.5595238095238096
82,0.0,0.2439024390243909,0.2439024390243909,0.2560975609756091,0.41463414634146184,0.7073170731707309,0.6951219512195127,0.7073170731707309,1.0,0.7073170731707309
83,0.0,0.15503875968992262,0.19379844961240242,0.29457364341085124,0.37984496124030953,0.426356589147288,0.7829457364341118,0.9767441860465107,1.0,0.4806201550387584
84,0.0,0.11299435028248817,0.19774011299435054,0.34463276836158063,0.4180790960451957,0.5536723163841785,0.8587570621468911,1.0,1.0,0.5988700564971727
85,0.0,0.273972602739722,0.273972602739722,0.287671232876713,0.4657534246575347,0.7945205479452084,0.7808219178082175,0.7945205479452084,1.0,0.7945205479452084
86,0.0,0.11627906976744201,0.19186046511627933,0.25581395348837244,0.3197674418604649,0.44767441860465107,0.7500000000000003,0.8604651162790709,1.0,0.4709302325581395
87,0.0,0.11764705882352956,0.2058823529411761,0.25882352941176506,0.3235294117647057,0.4117647058823535,0.7235294117647062,0.8588235294117659,1.0,0.46470588235294114
88,0.0,0.11834319526627227,0.2071005917159771,0.260355029585799,0.3195266272189351,0.4023668639053257,0.7573964497041425,0.8698224852071018,1.0,0.4319526627218944
89,0.0,0.2,0.20999999999999888,0.23000000000000112,0.36,0.44,0.5100000000000011,0.76,1.0,0.52
90,0.0,0.11627906976744186,0.2034883720930239,0.2558139534883721,0.31976744186046574,0.4069767441860478,0.7441860465116279,0.8604651162790697,1.0,0.459302325581396
91,0.0,0.11834319526627227,0.2071005917159745,0.260355029585799,0.32544378698224674,0.40828402366863864,0.7514792899408269,0.8698224852070991,1.0,0.4615384615384605
92,0.0,0.18085106382978564,0.2553191489361696,0.4468085106382992,0.5,0.7553191489361696,0.7446808510638304,0.7553191489361696,1.0,0.7553191489361696
93,0.0,0.11695906432748561,0.19298245614035062,0.2573099415204683,0.3216374269005835,0.41520467836257197,0.7426900584795316,0.8596491228070172,1.0,0.4619883040935662
94,0.0,0.15873015873015886,0.1825396825396818,0.1825396825396818,0.2698412698412692,0.4523809523809519,0.6111111111111107,0.8095238095238093,1.0,0.5238095238095234
95,0.0,0.2777777777777778,0.2777777777777778,0.2916666666666667,0.4722222222222222,0.8055555555555556,0.7916666666666666,0.8055555555555556,1.0,0.8055555555555556
96,0.0,0.16000000000000014,0.17600000000000016,0.18399999999999928,0.28800000000000026,0.4559999999999995,0.6080000000000005,0.8079999999999998,1.0,0.5280000000000005
97,0.0,0.25316455696202284,0.25316455696202284,0.26582278481012556,0.43037974683544084,0.7341772151898717,0.7215189873417718,0.7341772151898717,1.0,0.7341772151898717
98,0.0,0.15625,0.15625,0.16406249999999914,0.265625,0.453125,0.6171874999999991,0.8125,1.0,0.5234374999999991
99,0.0,0.14925373134328382,0.26119402985074586,0.26119402985074586,0.3432835820895512,0.5,0.6343283582089555,0.8208955223880594,1.0,0.5671641791044769
100,0.0,0.15625,0.17187499999999828,0.17187499999999828,0.2734375000000009,0.4609374999999974,0.6171874999999974,0.8125,1.0,0.53125
101,0.0,0.12195121951219512,0.21341463414634215,0.3292682926829282,0.40243902439024526,0.5487804878048794,0.7012195121951226,0.8536585365853658,1.0,0.6036585365853665
102,0.0,0.14925373134328382,0.201492537313434,0.201492537313434,0.29850746268656764,0.47761194029850823,0.6343283582089555,0.8208955223880594,1.0,0.5447761194029852
103,0.0,0.09756097560975584,0.18292682926829354,0.23170731707317146,0.39024390243902335,0.6341463414634129,0.6341463414634129,0.7073170731707324,1.0,0.7073170731707324
104,0.0,0.18181818181818218,0.26363636363636317,0.26363636363636317,0.2999999999999996,0.418181818181817,0.5545454545454547,0.7818181818181814,1.0,0.500000000000002
105,0.0,0.1941747572815532,0.3398058252427192,0.427184466019417,0.5533980582524255,0.7378640776699021,0.7378640776699021,0.7669902912621361,1.0,0.7669902912621361
106,0.0,0.05982905982905704,0.14529914529914828,0.4529914529914525,0.5641025641025628,0.769230769230768,0.7777777777777795,0.8119658119658099,1.0,0.8119658119658099
107,0.0,0.07831325301204742,0.16867469879517782,0.337349397590361,0.40361445783132543,0.5060240963855388,0.7771084337349353,0.8915662650602371,1.0,0.5602409638554202
108,0.0,0.07563025210084334,0.20168067226890812,0.48739495798319277,0.5966386554621838,0.7983193277310918,0.7058823529411747,0.7983193277310918,1.0,0.7983193277310918
109,0.0,0.1240875912408752,0.2335766423357666,0.4160583941605835,0.5109489051094894,0.576642335766423,0.6423357664233565,0.8248175182481751,1.0,0.6423357664233565
110,0.0,0.20430107526881863,0.20430107526881863,0.21505376344086047,0.3548387096774186,0.6129032258064512,0.6774193548387069,0.7634408602150511,1.0,0.7096774193548372
111,0.0,0.24390243902438957,0.24390243902438957,0.25609756097561315,0.414634146341465,0.7073170731707324,0.6951219512195144,0.7073170731707324,1.0,0.7073170731707324
112,0.0,0.18348623853211027,0.18348623853211027,0.19266055045871885,0.3119266055045895,0.4862385321100912,0.642201834862388,0.7798165137614677,1.0,0.5229357798165133
113,0.0,0.2127659574468053,0.37234042553190927,0.4468085106382987,0.5531914893617014,0.670212765957448,0.670212765957448,0.9255319148936201,1.0,0.744680851063828
114,0.0,0.1948051948052023,0.1948051948052023,0.20779220779220808,0.37662337662337575,0.6883116883116879,0.6753246753246821,0.6883116883116879,1.0,0.6883116883116879
115,0.0,0.0689655172413794,0.0689655172413794,0.07758620689655184,0.1896551724137929,0.353448275862069,0.577586206896552,0.7931034482758628,1.0,0.43103448275862083
116,0.0,0.006410256410256415,0.05128205128205132,0.32692307692307715,0.39743589743589774,0.525641025641026,0.6858974358974357,0.846153846153846,1.0,0.5833333333333337
117,0.0,0.12658227848101142,0.18987341772151786,0.3417721518987333,0.411392405063291,0.5253164556962026,0.6898734177215192,0.8481012658227846,1.0,0.5822784810126577
118,0.0,0.006493506493505782,0.10389610389610404,0.33116883116883095,0.39610389610389596,0.525974025974026,0.6818181818181821,0.8441558441558439,1.0,0.5844155844155853
119,0.0,0.15748031496063006,0.15748031496063006,0.16535433070866243,0.2677165354330711,0.42519685039370114,0.6141732283464573,0.8110236220472439,1.0,0.49606299212598554
120,0.0,0.0534351145038176,0.16793893129771148,0.213740458015267,0.2595419847328259,0.3206106870229022,0.6870229007633565,0.8167938931297711,1.0,0.3893129770992372
121,0.0,0.10000000000000182,0.1882352941176468,0.3764705882352936,0.4529411764705896,0.5529411764705888,0.7117647058823514,0.8588235294117649,1.0,0.6058823529411763
122,0.0,0.10967741935483823,0.20645161290322625,0.3032258064516143,0.3870967741935492,0.4967741935483874,0.6838709677419356,0.8451612903225804,1.0,0.5548387096774191
123,0.0,0.18681318681318232,0.26373626373626596,0.43956043956043356,0.5714285714285714,0.6483516483516454,0.472527472527468,0.7472527472527487,1.0,0.7472527472527487
124,0.0,0.01973684210525816,0.11842105263157818,0.3157894736842124,0.3684210526315811,0.480263157894736,0.6776315789473701,0.8421052631578938,1.0,0.539473684210528
125,0.0,0.042682926829268164,0.13414634146341461,0.34146341463414637,0.39024390243902446,0.5060975609756095,0.701219512195122,0.8536585365853661,1.0,0.5609756097560975
126,0.0,0.0059880239520958166,0.0958083832335324,0.30538922155688597,0.3832335329341316,0.49700598802395207,0.7065868263473056,0.8562874251497004,1.0,0.5508982035928144
127,0.0,0.16806722689075645,0.20168067226890776,0.20168067226890776,0.2773109243697491,0.29411764705882476,0.7058823529411772,0.8991596638655461,1.0,0.3697478991596642
128,0.0,0.07017543859649128,0.14619883040935616,0.35087719298245634,0.39766081871345055,0.5087719298245611,0.7134502923976613,0.8596491228070174,1.0,0.5614035087719302
129,0.0,0.1709401709401711,0.19658119658119771,0.19658119658119771,0.2649572649572662,0.3333333333333346,0.9059829059829069,0.9572649572649582,1.0,0.41025641025641063
130,0.0,0.045801526717557293,0.09923664122137328,0.35114503816793924,0.41984732824427434,0.4885496183206111,0.7175572519083976,0.9083969465648855,1.0,0.5267175572519079
131,0.0,0.07894736842105263,0.17763157894736914,0.25000000000000144,0.3355263157894744,0.3881578947368428,0.6973684210526331,0.8618421052631586,1.0,0.4473684210526316
132,0.0,0.05031446540880514,0.1194968553459129,0.2578616352201256,0.3333333333333333,0.4654088050314461,0.7547169811320771,0.8490566037735846,1.0,0.5031446540880513
133,0.0,0.09374999999999818,0.18749999999999914,0.3249999999999981,0.3874999999999997,0.5125000000000001,0.8062500000000016,0.9375000000000012,1.0,0.5625000000000002
134,0.0,0.16806722689075676,0.29411764705882154,0.21008403361344502,0.24369747899159638,0.36974789915966116,0.6638655462184865,0.7983193277310918,1.0,0.41176470588235314
135,0.0,0.05263157894736695,0.21052631578947714,0.5578947368421008,0.6947368421052661,0.7578947368421008,0.5684210526315779,0.8315789473684221,1.0,0.8315789473684221
136,0.0,0.1599999999999966,0.2639999999999958,0.2639999999999958,0.3119999999999976,0.367999999999995,0.7359999999999971,0.8079999999999998,1.0,0.4399999999999977
137,0.0,0.040322580645161324,0.1612903225806453,0.19354838709677435,0.24999999999999978,0.4112903225806451,0.6048387096774195,0.8064516129032256,1.0,0.48387096774193544
138,0.0,0.1347517730496448,0.22695035460992866,0.2978723404255316,0.3475177304964537,0.48226950354609927,0.6524822695035464,0.8297872340425537,1.0,0.546099290780142
139,0.0,0.14705882352941188,0.19117647058823545,0.23529411764705901,0.31617647058823556,0.45588235294117685,0.6397058823529409,0.8235294117647057,1.0,0.5220588235294122
140,0.0,0.047244094488188185,0.16535433070866085,0.19685039370078689,0.275590551181102,0.42519685039370064,0.6141732283464569,0.8110236220472438,1.0,0.49606299212598426
141,0.0,0.14492753623188429,0.25362318840579673,0.27536231884058016,0.33333333333333387,0.4710144927536231,0.6449275362318843,0.8260869565217388,1.0,0.5362318840579703
142,0.0,0.06896551724137945,0.06896551724137945,0.07758620689655092,0.18965517241379345,0.3534482758620687,0.5775862068965518,0.7931034482758617,1.0,0.4310344827586215
143,0.0,0.006410256410257122,0.05128205128205128,0.3269230769230762,0.3974358974358974,0.5256410256410257,0.6858974358974352,0.8461538461538461,1.0,0.5833333333333326
144,0.0,0.12658227848101283,0.18987341772151786,0.3417721518987333,0.411392405063291,0.5253164556962011,0.6898734177215192,0.8481012658227846,1.0,0.582278481012659
145,0.0,0.006493506493505782,0.10389610389610404,0.3311688311688324,0.39610389610389596,0.525974025974026,0.6818181818181821,0.8441558441558439,1.0,0.5844155844155838
146,0.0,0.15748031496063034,0.15748031496063034,0.16535433070866098,0.26771653543306984,0.42519685039370014,0.6141732283464566,0.8110236220472437,1.0,0.4960629921259829
147,0.0,0.0534351145038176,0.16793893129771148,0.213740458015267,0.2595419847328259,0.3206106870229022,0.6793893129770978,0.8167938931297711,1.0,0.3893129770992372
148,0.0,0.10526315789473807,0.1929824561403501,0.3801169590643266,0.456140350877194,0.5555555555555558,0.713450292397659,0.8596491228070177,1.0,0.6081871345029236
149,0.0,0.22727272727272757,0.3068181818181822,0.45454545454545514,0.6022727272727281,0.8750000000000011,0.8636363636363648,0.8750000000000011,1.0,0.8750000000000011
150,0.0,0.14925373134328287,0.20895522388059637,0.20895522388059637,0.2910447761194024,0.47014925373134286,0.6567164179104474,0.8432835820895521,1.0,0.47014925373134286
151,0.0,0.28169014084507044,0.28169014084507044,0.29577464788732394,0.4788732394366197,0.8169014084507042,0.8028169014084507,0.8169014084507042,1.0,0.8169014084507042
152,0.0,0.1503759398496242,0.2030075187969935,0.2030075187969935,0.293233082706768,0.47368421052631704,0.654135338345866,0.8421052631578955,1.0,0.47368421052631704
153,0.0,0.27397260273972646,0.27397260273972646,0.28767123287671126,0.46575342465753494,0.7945205479452037,0.7808219178082189,0.7945205479452037,1.0,0.7945205479452037
154,0.0,0.12738853503184722,0.12738853503184722,0.13375796178343888,0.21656050955414027,0.36942675159235694,0.7579617834394903,0.8471337579617834,1.0,0.36942675159235694
155,0.0,0.14925373134328357,0.201492537313432,0.201492537313432,0.2835820895522388,0.4626865671641791,0.6492537313432828,0.8358208955223864,1.0,0.4626865671641791
156,0.0,0.2439024390243909,0.2439024390243909,0.2560975609756091,0.41463414634146184,0.7073170731707309,0.6951219512195127,0.7073170731707309,1.0,0.7073170731707309
157,0.0,0.2439024390243909,0.2439024390243909,0.2560975609756091,0.41463414634146184,0.7073170731707309,0.6951219512195127,0.7073170731707309,1.0,0.7073170731707309
158,0.0,0.1481481481481485,0.20000000000000132,0.20000000000000132,0.28148148148148056,0.45925925925925876,0.637037037037037,0.8222222222222217,1.0,0.45925925925925876
159,0.0,0.24390243902438957,0.24390243902438957,0.25609756097561315,0.414634146341465,0.7073170731707324,0.6951219512195089,0.7073170731707324,1.0,0.7073170731707324
160,0.0,0.2439024390243909,0.2439024390243909,0.2560975609756091,0.41463414634146184,0.7073170731707309,0.6951219512195127,0.7073170731707309,1.0,0.7073170731707309
161,0.0,0.14814814814814803,0.17777777777777762,0.17777777777777762,0.25925925925925986,0.3629629629629618,0.6370370370370382,0.8222222222222224,1.0,0.4074074074074079
162,0.0,0.22784810126582095,0.22784810126582095,0.24050632911392647,0.4050632911392422,0.7088607594936739,0.6962025316455683,0.7088607594936739,1.0,0.7088607594936739
163,0.0,0.05384615384615138,0.1538461538461507,0.3769230769230733,0.4307692307692315,0.5999999999999959,0.7538461538461534,0.815384615384615,1.0,0.6230769230769199
164,0.0,0.09302325581395357,0.14728682170542648,0.15503875968992262,0.2558139534883723,0.34108527131782973,0.62015503875969,0.8139534883720932,1.0,0.41085271317829447
165,0.0,0.12213740458015278,0.1603053435114505,0.1603053435114505,0.25954198473282464,0.3511450381679384,0.6259541984732822,0.8167938931297708,1.0,0.41984732824427434
166,0.0,0.006289308176100638,0.10062893081761021,0.32075471698113184,0.3962264150943395,0.4654088050314465,0.6918238993710695,0.8490566037735854,1.0,0.5220125786163522
167,0.0,0.041916167664670684,0.13173652694610788,0.3413173652694613,0.41916167664670684,0.479041916167665,0.7065868263473052,0.8562874251497005,1.0,0.5329341317365273
168,0.0,0.07284768211920535,0.1721854304635763,0.38410596026490096,0.47019867549668837,0.5364238410596023,0.7152317880794707,0.8410596026490065,1.0,0.5894039735099335
169,0.0,0.09836065573770492,0.09836065573770492,0.10655737704918124,0.21311475409836064,0.3196721311475419,0.598360655737704,0.8032786885245902,1.0,0.39344262295081966
170,0.0,0.1503759398496242,0.2406015037593987,0.2406015037593987,0.30827067669172875,0.39849624060150324,0.6315789473684216,0.819548872180451,1.0,0.46616541353383495
171,0.0,0.006666666666667407,0.10666666666666667,0.34000000000000075,0.4266666666666667,0.5000000000000008,0.6733333333333341,0.84,1.0,0.56
172,0.0,0.0377358490566038,0.132075471698114,0.31446540880503165,0.3962264150943406,0.4591194968553469,0.6918238993710697,0.8490566037735848,1.0,0.5157232704402519
173,0.0,0.03401360544217614,0.09523809523809532,0.3469387755102036,0.43537414965986276,0.5102040816326527,0.7074829931972779,0.836734693877551,1.0,0.5714285714285704
174,0.0,0.1739130434782607,0.28695652173913305,0.28695652173913305,0.3739130434782615,0.4173913043478257,0.5739130434782622,0.7913043478260872,1.0,0.4956521739130459
175,0.0,0.12048192771084354,0.20481927710843534,0.37349397590361627,0.4337349397590367,0.5060240963855428,0.7048192771084341,0.8554216867469877,1.0,0.5602409638554218
176,0.0,0.006711409395975395,0.10738255033557055,0.3422818791946319,0.3892617449664447,0.47651006711409505,0.6711409395973159,0.8389261744966442,1.0,0.5369127516778528
177,0.0,0.07801418439716082,0.13475177304964314,0.22695035460992927,0.3191489361702122,0.3971631205673762,0.6524822695035435,0.8297872340425531,1.0,0.460992907801418
178,0.0,0.15267175572519123,0.15267175572519123,0.16030534351144995,0.2595419847328234,0.3435114503816794,0.6259541984732824,0.8167938931297706,1.0,0.4122137404580146
179,0.0,0.1639344262295085,0.1639344262295085,0.17213114754098302,0.27868852459016263,0.3606557377049187,0.6393442622950813,0.844262295081966,1.0,0.4344262295081966
180,0.0,0.1307189542483661,0.2287581699346414,0.35294117647058704,0.4379084967320243,0.5686274509803904,0.7516339869281029,0.8692810457516339,1.0,0.6274509803921573
181,0.0,0.1526717557251907,0.1526717557251907,0.16030534351145279,0.2595419847328259,0.358778625954199,0.6259541984732836,0.8167938931297711,1.0,0.427480916030534
182,0.0,0.12195121951219512,0.17682926829268225,0.3231707317073164,0.40243902439024254,0.5487804878048766,0.7012195121951226,0.8536585365853658,1.0,0.5487804878048766
183,0.0,0.11976047904191907,0.17964071856287595,0.3772455089820347,0.455089820359285,0.5628742514970084,0.7604790419161672,0.9101796407185647,1.0,0.6167664670658675
184,0.0,0.14705882352941188,0.23529411764705901,0.27205882352941196,0.3602941176470591,0.5367647058823529,0.6397058823529412,0.8235294117647062,1.0,0.6029411764705883
185,0.0,0.07920792079207921,0.22772277227722773,0.46534653465346537,0.594059405940594,0.6435643564356436,0.6435643564356436,0.801980198019802,1.0,0.7326732673267327
186,0.0,0.13422818791946245,0.22147651006711352,0.27516778523489877,0.3087248322147646,0.4697986577181204,0.8322147651006703,1.0,1.0,0.4697986577181204
187,0.0,0.15151515151515177,0.26515151515151475,0.3636363636363626,0.4090909090909081,0.484848484848484,0.7121212121212116,0.8636363636363634,1.0,0.5530303030303031
188,0.0,0.009523809523810592,0.15238095238095253,0.48571428571428726,0.49523809523809575,0.5619047619047636,0.6285714285714292,0.8666666666666687,1.0,0.6476190476190483
189,0.0,0.15151515151515152,0.15151515151515152,0.15909090909090992,0.25757575757575757,0.4393939393939394,0.7045454545454537,0.8939393939393939,1.0,0.5075757575757567
190,0.0,0.23076923076922945,0.23076923076922945,0.24615384615384658,0.44615384615384523,0.5384615384615377,0.5384615384615377,0.6307692307692302,1.0,0.6307692307692302
191,0.0,0.19047619047619027,0.33333333333333404,0.5333333333333328,0.5904761904761898,0.647619047619047,0.647619047619047,0.8476190476190478,1.0,0.7333333333333336
192,0.0,0.11976047904191608,0.2095808383233538,0.3832335329341315,0.4610778443113763,0.4970059880239524,0.7724550898203582,0.8922155688622742,1.0,0.5329341317365259
193,0.0,0.11904761904761904,0.20833333333333398,0.37500000000000067,0.4523809523809524,0.48809523809523675,0.7738095238095225,0.8809523809523809,1.0,0.5238095238095238
194,0.0,0.1197604790419164,0.20958083832335173,0.4191616766467061,0.4550898203592797,0.49101796407185594,0.7784431137724553,0.8862275449101787,1.0,0.5269461077844295
195,0.0,0.12195121951219512,0.21341463414634215,0.39634146341463344,0.45731707317072967,0.4939024390243896,0.774390243902437,0.8902439024390231,1.0,0.5304878048780467
196,0.0,0.2,0.3500000000000011,0.5400000000000023,0.56,0.6200000000000022,0.6200000000000022,0.8300000000000011,1.0,0.7100000000000011
197,0.0,0.05113636363636313,0.11931818181818149,0.3352272727272717,0.3693181818181821,0.5056818181818188,0.761363636363637,0.9034090909090913,1.0,0.5056818181818188
198,0.0,0.13986013986013976,0.13986013986013976,0.14685314685314907,0.23776223776223912,0.3846153846153851,0.6573426573426584,0.8321678321678323,1.0,0.4475524475524472
199,0.0,0.11363636363636363,0.198863636363637,0.32386363636363574,0.3977272727272715,0.5227272727272727,0.7215909090909097,0.8636363636363636,1.0,0.5738636363636357
200,0.0,0.2083333333333287,0.3645833333333345,0.4166666666666667,0.47916666666666896,0.5416666666666621,0.5937499999999942,0.8541666666666644,1.0,0.6354166666666655
201,0.0,0.11320754716981016,0.18238993710691792,0.308176100628928,0.3899371069182412,0.5031446540880513,0.8427672955974874,1.0,1.0,0.5283018867924512
202,0.0,0.10559006211180118,0.19875776397515532,0.3043478260869565,0.3850931677018634,0.48447204968944096,0.6956521739130435,0.8509316770186337,1.0,0.5403726708074534
203,0.0,0.11180124223602492,0.20496894409937902,0.31055900621118,0.39130434782608686,0.45962732919254656,0.6956521739130432,0.8509316770186335,1.0,0.515527950310559
204,0.0,0.10624999999999976,0.19999999999999987,0.30624999999999997,0.38750000000000007,0.48750000000000016,0.6937499999999996,0.8499999999999999,1.0,0.5437500000000002
205,0.0,0.10000000000000007,0.19375000000000014,0.3062500000000002,0.38749999999999957,0.4812499999999996,0.6937499999999998,0.8499999999999999,1.0,0.5374999999999996
206,0.0,0.10559006211180139,0.19875776397515488,0.30434782608695626,0.3850931677018632,0.4534161490683229,0.6956521739130438,0.850931677018634,1.0,0.5093167701863354
207,0.0,0.10625,0.2,0.3062499999999993,0.3875,0.45,0.6937499999999993,0.85,1.0,0.5062499999999993
208,0.0,0.10624999999999946,0.2000000000000003,0.30624999999999974,0.3875000000000005,0.48750000000000066,0.6937500000000003,0.8499999999999998,1.0,0.5437500000000001
209,0.0,0.10624999999999946,0.2000000000000003,0.30624999999999974,0.3875000000000005,0.48124999999999996,0.6937500000000003,0.8499999999999998,1.0,0.5375000000000008
210,0.0,0.10624999999999946,0.2000000000000003,0.30624999999999974,0.3874999999999991,0.48749999999999927,0.6937500000000003,0.8499999999999998,1.0,0.5437500000000001
211,0.0,0.11180124223602492,0.20496894409937833,0.3105590062111803,0.39130434782608653,0.48447204968944135,0.6956521739130439,0.8509316770186335,1.0,0.5403726708074531
212,0.0,0.10062893081761014,0.19496855345911893,0.3018867924528304,0.38364779874213795,0.4528301886792456,0.6918238993710683,0.8490566037735848,1.0,0.5094339622641506
213,0.0,0.10625000000000084,0.2000000000000003,0.30625000000000113,0.3875000000000005,0.48125000000000134,0.6937500000000003,0.8499999999999998,1.0,0.5375000000000008
214,0.0,0.1062499999999993,0.2,0.3,0.3812499999999993,0.475,0.6937500000000006,0.85,1.0,0.5312499999999993
215,0.0,0.1,0.1937500000000007,0.3062499999999993,0.3875000000000014,0.4937500000000007,0.6937500000000006,0.85,1.0,0.55
216,0.0,0.1062499999999996,0.20000000000000057,0.3000000000000008,0.38125000000000037,0.45000000000000123,0.6937499999999999,0.8499999999999995,1.0,0.5062500000000008
217,0.0,0.1062499999999993,0.2,0.3,0.3812499999999993,0.475,0.6937500000000006,0.85,1.0,0.5312499999999993
218,0.0,0.1,0.1937500000000007,0.3,0.3812499999999993,0.4562499999999993,0.6937500000000006,0.85,1.0,0.5125000000000014
219,0.0,0.10625000000000208,0.2,0.3062500000000021,0.3875000000000014,0.4937500000000007,0.6937500000000006,0.85,1.0,0.55
220,0.0,0.1062499999999996,0.20000000000000057,0.30625000000000013,0.3874999999999997,0.4875,0.6937499999999999,0.8499999999999995,1.0,0.5437499999999994
221,0.0,0.10062893081761028,0.1949685534591206,0.30188679245283084,0.38364779874213845,0.45283018867924624,0.6918238993710693,0.8490566037735874,1.0,0.5094339622641513
222,0.0,0.1062499999999993,0.2,0.3062499999999993,0.3875000000000014,0.4812499999999993,0.6937500000000006,0.85,1.0,0.5375000000000014
223,0.0,0.1118012422360263,0.2049689440993811,0.3043478260869588,0.385093167701865,0.4596273291925483,0.6956521739130439,0.8509316770186335,1.0,0.5155279503105601
224,0.0,0.10691823899371022,0.20125786163522055,0.30188679245283084,0.38364779874213845,0.4779874213836488,0.6918238993710693,0.8490566037735846,1.0,0.5345911949685539
225,0.0,0.17391304347826136,0.27826086956521817,0.27826086956521817,0.28695652173913416,0.3217391304347864,0.6000000000000046,0.8173913043478265,1.0,0.4000000000000031
226,0.0,0.1071428571428551,0.1071428571428551,0.11428571428571464,0.20714285714285702,0.378571428571429,0.7285714285714261,0.9071428571428577,1.0,0.378571428571429
227,0.0,0.11258278145695609,0.11258278145695609,0.11920529801324382,0.20529801324503136,0.31788079470198743,0.6754966887417249,0.8410596026490063,1.0,0.3774834437086123
228,0.0,0.045454545454540564,0.045454545454540564,0.053030303030300686,0.15151515151514866,0.2803030303030304,0.6893939393939358,0.8787878787878783,1.0,0.3484848484848446
229,0.0,0.10156249999999983,0.10156249999999983,0.10937499999999556,0.2109374999999954,0.35156250000000155,0.8593750000000008,0.9687500000000032,1.0,0.4218749999999977
230,0.0,0.10465116279069746,0.19186046511627894,0.3837209302325582,0.45930232558139544,0.5290697674418606,0.7151162790697672,0.8604651162790696,1.0,0.5813953488372096
231,0.0,0.16528925619834725,0.16528925619834725,0.17355371900826463,0.28099173553719037,0.3223140495867772,0.6859504132231402,0.8925619834710743,1.0,0.3966942148760334
232,0.0,0.11428571428571435,0.20000000000000012,0.39999999999999963,0.474285714285714,0.5428571428571426,0.7199999999999992,0.8628571428571428,1.0,0.594285714285714
233,0.0,0.10919540229885122,0.19540229885057472,0.39080459770114945,0.4655172413793097,0.5344827586206891,0.7183908045977005,0.8620689655172413,1.0,0.5862068965517241
234,0.0,0.11363636363636252,0.198863636363636,0.397727272727272,0.47159090909090906,0.5397727272727273,0.7215909090909094,0.8636363636363634,1.0,0.5909090909090904
235,0.0,0.11627906976744186,0.2034883720930239,0.3953488372093023,0.4709302325581389,0.5406976744186041,0.715116279069768,0.8604651162790697,1.0,0.5930232558139522
236,0.0,0.11428571428571421,0.2000000000000005,0.400000000000001,0.47428571428571464,0.5485714285714283,0.7200000000000009,0.862857142857143,1.0,0.599999999999999
237,0.0,0.09302325581395349,0.18023255813953554,0.377906976744188,0.45348837209302456,0.5232558139534896,0.715116279069768,0.8604651162790697,1.0,0.5755813953488379
238,0.0,0.1142857142857145,0.200000000000001,0.39999999999999947,0.4742857142857133,0.5485714285714296,0.7200000000000001,0.8628571428571425,1.0,0.6000000000000005
239,0.0,0.19801980198019825,0.28712871287128633,0.28712871287128633,0.36633663366336566,0.465346534653467,0.6138613861386123,0.861386138613859,1.0,0.5544554455445551
240,0.0,0.21839080459770102,0.3908045977011444,0.4022988505747114,0.5517241379310309,0.8275862068965465,0.8160919540229897,0.8275862068965465,1.0,0.8275862068965465
241,0.0,0.13698630136986018,0.2397260273972614,0.30136986301369606,0.3904109589041064,0.4794520547945228,0.6643835616438328,0.8356164383561642,1.0,0.5410958904109574
242,0.0,0.14925373134328665,0.20149253731343333,0.26865671641791333,0.36567164179104666,0.4477611940298533,0.6716417910447734,0.82089552238806,1.0,0.5149253731343266
243,0.0,0.00534759358288741,0.08556149732620301,0.27272727272727276,0.34224598930481265,0.4705882352941176,0.8128342245989308,0.871657754010695,1.0,0.4705882352941176
244,0.0,0.18348623853211027,0.321100917431193,0.4587155963302757,0.5596330275229353,0.7798165137614677,0.7706422018348622,0.7798165137614677,1.0,0.7798165137614677
245,0.0,0.25,0.3125,0.3125,0.4375,0.5375,0.5375,0.8375,1.0,0.65
246,0.0,0.13157894736842124,0.13157894736842124,0.13815789473684156,0.22368421052631612,0.38157894736842163,0.7828947368421056,0.8421052631578945,1.0,0.38157894736842163
247,0.0,0.22727272727272532,0.3522727272727269,0.3522727272727269,0.45454545454545314,0.7272727272727266,0.7159090909090915,0.7272727272727266,1.0,0.7272727272727266
248,0.0,0.10852713178294583,0.10852713178294583,0.1162790697674411,0.21705426356589166,0.40310077519379706,0.7596899224806191,0.9534883720930232,1.0,0.40310077519379706
249,0.0,0.037037037037037646,0.11640211640211647,0.30158730158730235,0.32804232804232825,0.4550264550264553,0.7989417989417988,0.8730158730158729,1.0,0.5026455026455036
250,0.0,0.12048192771084354,0.15662650602409658,0.15662650602409658,0.23493975903614422,0.37951807228915646,0.7048192771084341,0.8554216867469877,1.0,0.37951807228915646
251,0.0,0.01123595505617857,0.1348314606741578,0.5730337078651694,0.6292134831460673,0.6853932584269651,0.6853932584269651,0.7303370786516844,1.0,0.7303370786516844
252,0.0,0.009174311926604495,0.14678899082568822,0.46788990825687815,0.5596330275229353,0.7798165137614677,0.7706422018348632,0.7798165137614677,1.0,0.7798165137614677
253,0.0,0.007462686567163363,0.11940298507462706,0.38059701492537457,0.41791044776119474,0.5970149253731353,0.6716417910447756,0.8582089552238829,1.0,0.5970149253731353
254,0.0,0.05434782608695531,0.11956521739130556,0.11956521739130556,0.17391304347826086,0.38043478260869684,0.4673913043478273,0.7391304347826086,1.0,0.4782608695652174
255,0.0,0.0552147239263798,0.08588957055214605,0.36196319018404777,0.39263803680981674,0.539877300613498,0.6993865030674847,0.8527607361963188,1.0,0.5950920245398779
256,0.0,0.0804597701149439,0.10919540229885136,0.33333333333333504,0.3620689655172425,0.5000000000000012,0.7701149425287354,0.8620689655172412,1.0,0.5000000000000012
257,0.0,0.03749999999999861,0.075,0.2062499999999993,0.2374999999999986,0.3874999999999986,0.7187499999999979,0.85,1.0,0.4437500000000007
258,0.0,0.03448275862069097,0.06896551724137939,0.2528735632183911,0.3275862068965515,0.4655172413793103,0.7183908045977014,0.8620689655172412,1.0,0.4655172413793103
259,0.0,0.1360544217687078,0.2380952380952394,0.3809523809523818,0.414965986394558,0.5782312925170073,0.6666666666666666,0.8367346938775506,1.0,0.6394557823129251
260,0.0,0.0333333333333321,0.11666666666666604,0.26666666666666666,0.31666666666666604,0.4499999999999994,0.7333333333333333,0.8666666666666667,1.0,0.4999999999999988
261,0.0,0.008474576271181785,0.13559322033898383,0.4322033898305043,0.5423728813559353,0.5847457627118667,0.7711864406779638,0.8728813559322055,1.0,0.6525423728813586
262,0.0,0.12345679012345422,0.21604938271604487,0.43209876543209524,0.4629629629629588,0.49382716049382236,0.8333333333333324,0.9629629629629616,1.0,0.5185185185185165
263,0.0,0.15624999999999797,0.31249999999999595,0.60416666666667,0.6562500000000026,0.7187500000000054,0.7187500000000054,0.7916666666666694,1.0,0.7916666666666694
264,0.0,0.08695652173912735,0.1594202898550679,0.29710144927535875,0.33333333333332904,0.36956521739130577,0.7608695652173885,0.9420289855072462,1.0,0.4275362318840595
265,0.0,0.15833333333333324,0.15833333333333324,0.1666666666666666,0.275,0.44999999999999996,0.8999999999999999,0.9416666666666667,1.0,0.5
266,0.0,0.14388489208633104,0.25179856115107935,0.17266187050359727,0.20863309352518003,0.2589928057553959,0.6546762589928059,0.8273381294964032,1.0,0.32374100719424487
267,0.0,0.16393442622950835,0.16393442622950835,0.17213114754098377,0.2786885245901642,0.44262295081967207,0.9098360655737704,0.9508196721311475,1.0,0.5081967213114754
268,0.0,0.14492753623188384,0.253623188405797,0.17391304347826067,0.21014492753623173,0.253623188405797,0.6449275362318845,0.8260869565217389,1.0,0.3188405797101449
269,0.0,0.16528925619834725,0.181818181818182,0.181818181818182,0.2644628099173547,0.42975206611570194,0.8925619834710743,0.933884297520661,1.0,0.4462809917355367
270,0.0,0.14388489208633104,0.25179856115107935,0.17266187050359727,0.20863309352518003,0.26618705035971246,0.6546762589928055,0.8345323741007193,1.0,0.32374100719424487
271,0.0,0.16393442622950835,0.16393442622950835,0.17213114754098377,0.2786885245901642,0.4754098360655742,0.9098360655737704,0.9508196721311475,1.0,0.549180327868853
272,0.0,0.14492753623188337,0.2536231884057965,0.1739130434782602,0.21014492753623124,0.2536231884057965,0.6449275362318838,0.826086956521739,1.0,0.3188405797101444
273,0.0,0.16393442622950835,0.16393442622950835,0.17213114754098377,0.2786885245901642,0.4426229508196725,0.901639344262295,0.9426229508196721,1.0,0.45901639344262335
274,0.0,0.14388489208633104,0.2517985611510785,0.17266187050359727,0.20863309352518003,0.2589928057553959,0.6474820143884897,0.8273381294964027,1.0,0.3237410071942441
275,0.0,0.13675213675213688,0.13675213675213688,0.14529914529914448,0.25641025641025667,0.41880341880341826,0.905982905982905,0.9487179487179487,1.0,0.4700854700854696
276,0.0,0.14492753623188406,0.2536231884057979,0.17391304347826086,0.21014492753623268,0.2536231884057979,0.6449275362318848,0.8260869565217391,1.0,0.3188405797101449
277,0.0,0.16528925619834725,0.16528925619834725,0.17355371900826372,0.2809917355371885,0.4380165289256193,0.884297520661157,0.9256198347107428,1.0,0.5123966942148747
278,0.0,0.14285714285714307,0.2499999999999996,0.1714285714285717,0.20714285714285668,0.27142857142857185,0.6571428571428566,0.8357142857142863,1.0,0.32857142857142907
279,0.0,0.16666666666666696,0.16666666666666696,0.1749999999999994,0.2833333333333339,0.44166666666666654,0.9083333333333341,0.95,1.0,0.5083333333333333
280,0.0,0.14492753623188406,0.2536231884057963,0.17391304347826086,0.21014492753623107,0.2536231884057963,0.6521739130434783,0.8260869565217391,1.0,0.3188405797101449
281,0.0,0.16393442622950818,0.16393442622950818,0.17213114754098452,0.2786885245901639,0.43442622950819765,0.8934426229508188,0.9344262295081968,1.0,0.45901639344262296
282,0.0,0.14388489208633104,0.2517985611510801,0.17266187050359727,0.20863309352518083,0.26618705035971324,0.6546762589928071,0.8345323741007201,1.0,0.32374100719424564
283,0.0,0.14999999999999844,0.14999999999999844,0.1583333333333327,0.26666666666666533,0.4333333333333323,0.9083333333333341,0.95,1.0,0.4666666666666657
284,0.0,0.14492753623188429,0.25362318840579673,0.17391304347826114,0.21014492753623143,0.25362318840579673,0.6449275362318843,0.8260869565217388,1.0,0.31884057971014546
285,0.0,0.1282051282051274,0.1282051282051274,0.13675213675213688,0.24786324786324715,0.4529914529914525,0.8974358974358974,0.9401709401709392,1.0,0.521367521367521
286,0.0,0.1438848920863313,0.2517985611510805,0.17266187050359755,0.20863309352517956,0.2589928057553963,0.6834532374100744,0.8273381294964056,1.0,0.3237410071942446
287,0.0,0.16528925619834725,0.16528925619834725,0.17355371900826372,0.2809917355371922,0.4628099173553723,0.9173553719008282,0.9586776859504141,1.0,0.5123966942148747
288,0.0,0.14598540145985414,0.2481751824817504,0.17518248175182496,0.21167883211678767,0.2481751824817504,0.6715328467153258,0.8248175182481751,1.0,0.27737226277372123
289,0.0,0.10526315789473664,0.10526315789473664,0.11403508771930095,0.228070175438598,0.4035087719298257,0.8947368421052634,0.9385964912280693,1.0,0.48245614035087725
290,0.0,0.1438848920863313,0.2517985611510805,0.17266187050359755,0.20863309352517956,0.2589928057553963,0.7122302158273375,0.8273381294964025,1.0,0.3165467625899288
291,0.0,0.14492753623188429,0.21739130434782483,0.26811594202898514,0.36231884057970914,0.5072463768115935,0.9202898550724629,0.9565217391304364,1.0,0.5362318840579703
292,0.0,0.1449275362318838,0.2536231884057975,0.1739130434782606,0.21014492753623396,0.2536231884057975,0.6666666666666656,0.8260869565217394,1.0,0.3188405797101444
293,0.0,0.11504424778761368,0.11504424778761368,0.1238938053097366,0.23893805309734634,0.45132743362832,0.90265486725664,0.9469026548672586,1.0,0.45132743362832
294,0.0,0.14492753623188429,0.2536231884057951,0.17391304347826114,0.21014492753623143,0.2536231884057951,0.6666666666666645,0.8260869565217388,1.0,0.31884057971014546
295,0.0,0.12931034482758716,0.12931034482758716,0.13793103448275862,0.2500000000000029,0.41379310344827586,0.8793103448275881,0.9224137931034493,1.0,0.49137931034483046
296,0.0,0.1418439716312058,0.24822695035460776,0.17021276595744694,0.2056737588652476,0.2695035460992894,0.6524822695035466,0.8297872340425531,1.0,0.32624113475177174
297,0.0,0.13793103448275862,0.13793103448275862,0.1465517241379339,0.2586206896551743,0.4568965517241408,0.9051724137931025,0.9482758620689674,1.0,0.5344827586206916
298,0.0,0.1449275362318838,0.2536231884057975,0.1739130434782606,0.21014492753623396,0.2536231884057975,0.6449275362318855,0.8260869565217394,1.0,0.3188405797101444
299,0.0,0.158730158730159,0.1904761904761908,0.19841269841269787,0.30158730158730035,0.49206349206349115,0.8968253968253975,0.9365079365079364,1.0,0.5634920634920618
300,0.0,0.14285714285714332,0.24999999999999842,0.17142857142857199,0.20714285714285702,0.26428571428571435,0.6499999999999997,0.8285714285714281,1.0,0.3214285714285717
301,0.0,0.1512605042016824,0.1512605042016824,0.15966386554621928,0.26890756302520985,0.436974789915966,0.9075630252100831,0.9495798319327713,1.0,0.5042016806722684
302,0.0,0.1449275362318838,0.2536231884057975,0.1739130434782606,0.21014492753623074,0.2536231884057975,0.6449275362318823,0.8260869565217394,1.0,0.3188405797101444
303,0.0,0.15384615384615358,0.15384615384615358,0.16153846153846382,0.2615384615384628,0.4461538461538471,0.6461538461538451,0.8153846153846157,1.0,0.4999999999999983
304,0.0,0.17142857142857088,0.22857142857142784,0.22857142857142784,0.39999999999999875,0.7428571428571406,0.7285714285714279,0.7428571428571406,1.0,0.7428571428571406
305,0.0,0.006134969325152689,0.05521472392637965,0.31288343558282256,0.3926380368098157,0.5092024539877303,0.6993865030674828,0.8527607361963191,1.0,0.5644171779141073
306,0.0,0.026041666666670713,0.06770833333333738,0.2864583333333362,0.35416666666666896,0.47916666666666896,0.7447916666666695,0.875,1.0,0.47916666666666896
307,0.0,0.047945205479449846,0.13013698630137083,0.23287671232876594,0.3219178082191763,0.465753424657538,0.8287671232876748,0.9863013698630152,1.0,0.4931506849315076
308,0.0,0.1923076923076924,0.33653846153846173,0.5192307692307689,0.5384615384615382,0.5961538461538459,0.6153846153846152,0.8557692307692307,1.0,0.6538461538461536
309,0.0,0.19607843137254924,0.3431372549019612,0.509803921568628,0.5196078431372555,0.5882352941176477,0.6176470588235301,0.8627450980392155,1.0,0.6470588235294125
310,0.0,0.1574803149606292,0.2755905511811017,0.4724409448818893,0.5196850393700784,0.5433070866141728,0.7952755905511809,0.826771653543307,1.0,0.6141732283464564
311,0.0,0.17857142857142874,0.31250000000000033,0.4732142857142862,0.49107142857142905,0.5446428571428577,0.5625000000000006,0.7857142857142855,1.0,0.5982142857142863
312,0.0,0.11392405063291015,0.1962025316455692,0.1962025316455692,0.2278481012658217,0.3481012658227846,0.7151898734177218,0.8481012658227846,1.0,0.40506329113923967
313,0.0,0.15624999999999853,0.2734374999999996,0.41406249999999983,0.421874999999999,0.47656249999999994,0.7968749999999997,0.8359375000000006,1.0,0.5234375
314,0.0,0.17699115044247804,0.3097345132743356,0.4690265486725658,0.48672566371681364,0.539823008849557,0.5663716814159298,0.7876106194690263,1.0,0.5929203539823005
315,0.0,0.19417475728155362,0.33980582524271774,0.5922330097087374,0.6504854368932035,0.6699029126213588,0.6116504854368928,0.8543689320388359,1.0,0.757281553398059
316,0.0,0.19607843137254943,0.34313725490196045,0.5882352941176483,0.6470588235294131,0.7156862745098044,0.6176470588235297,0.8627450980392154,1.0,0.8039215686274506
317,0.0,0.19417475728155145,0.33980582524271774,0.5145631067961138,0.5339805825242714,0.5922330097087353,0.6213592233009694,0.8640776699029104,1.0,0.6504854368932035
318,0.0,0.13333333333333353,0.23333333333333442,0.17333333333333212,0.19333333333333289,0.3133333333333345,0.7066666666666662,0.8399999999999997,1.0,0.3733333333333339
319,0.0,0.11392405063291015,0.19620253164556778,0.19620253164556778,0.2278481012658231,0.34810126582278317,0.7088607594936691,0.8481012658227846,1.0,0.40506329113924106
320,0.0,0.19607843137254943,0.3431372549019583,0.5980392156862747,0.6568627450980373,0.6862745098039209,0.6274509803921582,0.8725490196078439,1.0,0.7745098039215671
321,0.0,0.1960784313725451,0.3431372549019583,0.5098039215686242,0.5294117647058814,0.588235294117644,0.6078431372549011,0.8529411764705869,1.0,0.647058823529411
322,0.0,0.19417475728155403,0.3398058252427206,0.5922330097087387,0.650485436893207,0.6699029126213603,0.6213592233009729,0.8640776699029143,1.0,0.7572815533980586
323,0.0,0.1960784313725486,0.3431372549019611,0.5098039215686263,0.5196078431372527,0.5882352941176457,0.6176470588235291,0.8627450980392138,1.0,0.6470588235294126
324,0.0,0.1202531645569629,0.20253164556962053,0.20253164556962053,0.2278481012658231,0.348101265822786,0.7151898734177218,0.8481012658227846,1.0,0.40506329113924106
325,0.0,0.12101910828025274,0.21019108280254722,0.21019108280254722,0.229299363057325,0.3439490445859861,0.7197452229299361,0.8471337579617834,1.0,0.40127388535031666
326,0.0,0.1941747572815532,0.3398058252427192,0.5145631067961192,0.5242718446601957,0.5922330097087405,0.6213592233009702,0.8640776699029106,1.0,0.6504854368932043
327,0.0,0.06569343065693052,0.06569343065693052,0.07299270072992568,0.16788321167883036,0.2919708029197092,0.7883211678832116,0.8248175182481745,1.0,0.35766423357663973
328,0.0,0.13008130081300895,0.13008130081300895,0.1382113821138175,0.24390243902438638,0.35772357723577103,0.796747967479678,1.0,1.0,0.4308943089430913
329,0.0,0.09859154929578169,0.09859154929578169,0.11267605633802728,0.29577464788732005,0.5915492957746401,0.5915492957746401,0.6760563380281638,1.0,0.6760563380281638
330,0.0,0.11971830985915502,0.22535211267605573,0.3521126760563375,0.4225352112676052,0.4999999999999996,0.6549295774647884,0.8309859154929576,1.0,0.5633802816901405
331,0.0,0.15053763440859994,0.30107526881720226,0.36559139784946043,0.505376344086021,0.5806451612903208,0.5806451612903208,0.7419354838709674,1.0,0.623655913978493
332,0.0,0.13513513513513514,0.23648648648648724,0.36486486486486486,0.43243243243243246,0.506756756756756,0.6689189189189182,0.8378378378378378,1.0,0.5675675675675675
333,0.0,0.11034482758620698,0.2137931034482768,0.3517241379310355,0.42068965517241336,0.48965517241379425,0.6620689655172419,0.8344827586206895,1.0,0.5517241379310349
334,0.0,0.235294117647059,0.235294117647059,0.24705882352941191,0.40000000000000024,0.6352941176470586,0.6352941176470586,0.7176470588235292,1.0,0.7176470588235292
335,0.0,0.12307692307692318,0.12307692307692318,0.1307692307692309,0.23076923076923098,0.41538461538461574,0.6230769230769236,0.815384615384616,1.0,0.41538461538461574
336,0.0,0.20408163265306145,0.20408163265306145,0.21428571428571452,0.34693877551020447,0.5918367346938771,0.6836734693877548,0.857142857142857,1.0,0.5918367346938771
337,0.0,0.13888888888888834,0.24305555555555516,0.2499999999999996,0.3263888888888886,0.4861111111111111,0.6597222222222224,0.8333333333333338,1.0,0.5069444444444444
338,0.0,0.14084507042253522,0.21830985915493037,0.21830985915493037,0.29577464788732394,0.4647887323943662,0.654929577464788,0.8309859154929577,1.0,0.4647887323943662
339,0.0,0.21505376344086047,0.21505376344086047,0.2258064516129023,0.3655913978494628,0.6236559139784954,0.6451612903225814,0.7419354838709674,1.0,0.7204301075268814
340,0.0,0.1176470588235296,0.19117647058823398,0.485294117647058,0.5588235294117639,0.6985294117647062,0.6985294117647062,0.8455882352941182,1.0,0.7647058823529408
341,0.0,0.13333333333333353,0.18666666666666695,0.2533333333333337,0.33999999999999975,0.5,0.6733333333333336,0.8399999999999997,1.0,0.5599999999999994
342,0.0,0.08620689655172478,0.1724137931034483,0.3505747126436775,0.42528735632183906,0.5632183908045977,0.7183908045977005,0.8620689655172413,1.0,0.6149425287356316
343,0.0,0.26315789473684287,0.26315789473684287,0.27631578947368357,0.44736842105263286,0.7631578947368444,0.7500000000000008,0.7631578947368444,1.0,0.7631578947368444
344,0.0,0.11111111111111138,0.1944444444444431,0.3888888888888886,0.4500000000000005,0.5833333333333341,0.7277777777777777,0.8666666666666664,1.0,0.5833333333333341
345,0.0,0.11764705882352695,0.20588235294117477,0.34705882352941025,0.4235294117647038,0.5470588235294118,0.7117647058823532,0.8588235294117645,1.0,0.5999999999999994
346,0.0,0.1282051282051282,0.19871794871794943,0.3076923076923077,0.3782051282051289,0.4807692307692315,0.6987179487179509,0.8589743589743604,1.0,0.5128205128205128
347,0.0,0.10526315789473684,0.1973684210526301,0.26973684210526244,0.3552631578947354,0.4473684210526316,0.6776315789473691,0.8421052631578947,1.0,0.5065789473684204
348,0.0,0.1941747572815532,0.3398058252427192,0.39805825242718296,0.5242718446601957,0.7184466019417489,0.7184466019417489,0.8932038834951447,1.0,0.8058252427184468
349,0.0,0.06211180124223469,0.15527950310558947,0.29813664596273315,0.3664596273291935,0.5155279503105573,0.6956521739130439,0.8509316770186335,1.0,0.5155279503105573
350,0.0,0.2298850574712641,0.2298850574712641,0.2413793103448311,0.3908045977011515,0.6666666666666684,0.6666666666666684,0.7241379310344831,1.0,0.7241379310344831
351,0.0,0.11258278145695315,0.19867549668874068,0.23841059602648765,0.32450331125827814,0.4370860927152313,0.6754966887417219,0.8410596026490063,1.0,0.4966887417218532
352,0.0,0.2439024390243909,0.2439024390243909,0.2560975609756091,0.41463414634146184,0.7073170731707309,0.6951219512195127,0.7073170731707309,1.0,0.7073170731707309
353,0.0,0.1266666666666676,0.17333333333333506,0.2533333333333352,0.34000000000000125,0.45333333333333403,0.6800000000000025,0.8466666666666687,1.0,0.5000000000000014
354,0.0,0.21052631578946976,0.21052631578946976,0.22105263157894697,0.35789473684210416,0.5999999999999963,0.5999999999999963,0.7684210526315758,1.0,0.6947368421052632
355,0.0,0.0828025477707,0.17834394904458328,0.26751592356687776,0.35031847133757776,0.49681528662419994,0.6878980891719721,0.8471337579617834,1.0,0.54140127388535
356,0.0,0.22727272727272452,0.22727272727272452,0.23863636363636478,0.38636363636363774,0.6590909090909132,0.6704545454545434,0.7272727272727346,1.0,0.7272727272727346
357,0.0,0.1282051282051307,0.22435897435897442,0.27564102564102555,0.35256410256410514,0.5064102564102585,0.6858974358974347,0.8461538461538466,1.0,0.5641025641025625
358,0.0,0.24999999999999722,0.24999999999999722,0.2625000000000015,0.42500000000000193,0.7250000000000053,0.7750000000000002,0.8500000000000039,1.0,0.7250000000000053
359,0.0,0.09302325581395669,0.1627906976744173,0.1627906976744173,0.24806201550387533,0.41860465116279133,0.6434108527131774,0.8372093023255827,1.0,0.47286821705426146
360,0.0,0.11627906976744194,0.20348837209302306,0.3662790697674418,0.4302325581395348,0.5697674418604648,0.7151162790697673,0.8604651162790696,1.0,0.5697674418604648
361,0.0,0.09375000000000007,0.18750000000000014,0.3000000000000002,0.38125000000000026,0.48125000000000034,0.6937499999999998,0.8499999999999999,1.0,0.5125000000000004
362,0.0,0.04938271604938271,0.141975308641976,0.345679012345679,0.4135802469135796,0.5617283950617277,0.7098765432098758,0.8641975308641975,1.0,0.5617283950617277
363,0.0,0.14084507042253544,0.23239436619718268,0.23239436619718268,0.32394366197182994,0.46478873239436536,0.654929577464789,0.8309859154929575,1.0,0.5281690140845071
364,0.0,0.14814814814814828,0.19999999999999934,0.19999999999999934,0.27407407407407347,0.4518518518518514,0.637037037037036,0.8222222222222221,1.0,0.4518518518518514
365,0.0,0.12738853503184722,0.22292993630573335,0.2993630573248417,0.38216560509554165,0.5159235668789806,0.687898089171975,0.8471337579617834,1.0,0.5668789808917194
366,0.0,0.12578616352201283,0.21383647798742045,0.3144654088050307,0.38364779874213845,0.477987421383646,0.6918238993710693,0.8490566037735846,1.0,0.5345911949685539
367,0.0,0.1342281879194632,0.2348993288590613,0.27516778523489877,0.3624161073825491,0.46308724832214726,0.6711409395973159,0.8389261744966442,1.0,0.523489932885905
368,0.0,0.09714285714285645,0.18285714285714275,0.38285714285714323,0.4457142857142842,0.5714285714285711,0.7199999999999983,0.862857142857143,1.0,0.6228571428571418
369,0.0,0.08333333333333262,0.1730769230769238,0.28205128205128205,0.358974358974359,0.4487179487179473,0.6858974358974366,0.8461538461538461,1.0,0.5064102564102572
370,0.0,0.12738853503184722,0.20382165605095556,0.28662420382165554,0.36942675159235555,0.477707006369425,0.687898089171975,0.8471337579617834,1.0,0.5222929936305722
371,0.0,0.08187134502924101,0.16959064327485304,0.3567251461988295,0.43274853801169433,0.5555555555555532,0.713450292397659,0.8596491228070177,1.0,0.6081871345029236
372,0.0,0.1285714285714274,0.22142857142856975,0.22142857142856975,0.2999999999999994,0.46428571428571813,0.6500000000000029,0.8285714285714281,1.0,0.5285714285714287
373,0.0,0.11585365853658544,0.20731707317073184,0.3353658536585368,0.41463414634146334,0.5609756097560976,0.7012195121951221,0.8536585365853657,1.0,0.5609756097560976
374,0.0,0.07801418439716318,0.17021276595744694,0.23404255319148953,0.3262411347517733,0.460992907801418,0.6524822695035458,0.8297872340425531,1.0,0.5248226950354606
375,0.0,0.14843750000000014,0.16406250000000014,0.16406250000000014,0.2500000000000002,0.36718750000000033,0.6171874999999997,0.8124999999999999,1.0,0.41406250000000033
376,0.0,0.09154929577464725,0.19718309859154803,0.2535211267605622,0.34507042253521103,0.5140845070422535,0.6690140845070425,0.845070422535211,1.0,0.5774647887323937
377,0.0,0.12345679012345559,0.19753086419752977,0.3333333333333324,0.41358024691358014,0.5246913580246914,0.6975308641975312,0.8518518518518516,1.0,0.5802469135802464
378,0.0,0.11235955056179789,0.1966292134831457,0.39325842696629265,0.46067415730337014,0.5561797752808989,0.7247191011235958,0.8651685393258425,1.0,0.6067415730337073
379,0.0,0.15267175572519123,0.18320610687022948,0.18320610687022948,0.2671755725190838,0.45038167938931156,0.6259541984732824,0.8167938931297706,1.0,0.5190839694656502
380,0.0,0.14173228346456856,0.14960629921259916,0.14960629921259916,0.25196850393700765,0.4409448818897634,0.6141732283464579,0.8110236220472442,1.0,0.4409448818897634
381,0.0,0.12903225806451604,0.20645161290322567,0.3096774193548385,0.3935483870967732,0.509677419354839,0.6838709677419336,0.8451612903225808,1.0,0.5677419354838705
382,0.0,0.1212121212121213,0.19999999999999946,0.345454545454545,0.41818181818181777,0.5575757575757553,0.7030303030303008,0.8545454545454545,1.0,0.593939393939393
383,0.0,0.09016393442623058,0.11475409836065777,0.11475409836065777,0.21311475409835923,0.4098360655737694,0.5983606557377051,0.8032786885245898,1.0,0.483606557377051
384,0.0,0.07284768211920326,0.17218543046357507,0.2649006622516562,0.3509933774834437,0.5099337748344375,0.6754966887417219,0.8410596026490063,1.0,0.5099337748344375
385,0.0,0.11111111111111138,0.1944444444444431,0.3888888888888886,0.4611111111111104,0.5611111111111119,0.7277777777777777,0.8666666666666664,1.0,0.6111111111111114
386,0.0,0.06329113924050483,0.12025316455696256,0.30379746835442994,0.3860759493670874,0.5063291139240499,0.6898734177215173,0.848101265822785,1.0,0.563291139240502
387,0.0,0.046666666666666703,0.13333333333333344,0.24000000000000019,0.3266666666666669,0.3866666666666666,0.6733333333333335,0.8399999999999999,1.0,0.4466666666666666
388,0.0,0.11235955056179726,0.1966292134831457,0.35393258426966273,0.4213483146067415,0.4775280898876404,0.7247191011235952,0.8651685393258425,1.0,0.5280898876404495
389,0.0,0.11299435028248601,0.19774011299435054,0.35593220338983095,0.42372881355932257,0.4802259887005656,0.7231638418079099,0.8644067796610174,1.0,0.5310734463276843
390,0.0,0.09714285714285784,0.18285714285714297,0.34857142857142814,0.41714285714285676,0.474285714285714,0.7200000000000004,0.8628571428571428,1.0,0.525714285714286
391,0.0,0.08670520231213825,0.1734104046242765,0.34104046242774566,0.4104046242774568,0.4682080924855494,0.7167630057803469,0.8612716763005778,1.0,0.5144508670520235
392,0.0,0.0760233918128649,0.16374269005847963,0.3333333333333329,0.4093567251461991,0.4619883040935669,0.7134502923976613,0.8596491228070174,1.0,0.514619883040936
393,0.0,0.05988023952095804,0.14970059880239578,0.3233532934131734,0.3952095808383231,0.45508982035928114,0.7065868263473036,0.8562874251497007,1.0,0.5089820359281441
394,0.0,0.11235955056179789,0.19662921348314694,0.35955056179775324,0.426966292134832,0.4831460674157297,0.7247191011235958,0.8651685393258425,1.0,0.5337078651685381
395,0.0,0.07100591715976336,0.15976331360946822,0.3313609467455623,0.4023668639053257,0.4615384615384605,0.7100591715976337,0.8579881656804733,1.0,0.514792899408285
396,0.0,0.07647058823529357,0.1647058823529414,0.3294117647058828,0.40588235294117636,0.458823529411764,0.7117647058823532,0.8588235294117645,1.0,0.5117647058823517
397,0.0,0.09302325581395372,0.1802325581395334,0.3488372093023239,0.4186046511627892,0.4767441860465116,0.7151162790697674,0.8604651162790694,1.0,0.5290697674418599
398,0.0,0.11235955056179789,0.19662921348314444,0.36516853932584253,0.43258426966292124,0.488764044943819,0.7247191011235958,0.8651685393258425,1.0,0.5393258426966299
399,0.0,0.06586826347305202,0.15568862275449,0.3293413173652681,0.401197604790418,0.4610778443113775,0.7065868263473055,0.8562874251497004,1.0,0.5149700598802393
400,0.0,0.12195121951219512,0.21341463414634215,0.2926829268292656,0.3719512195121972,0.43292682926829334,0.7012195121951199,0.8536585365853658,1.0,0.48780487804877776
401,0.0,0.14925373134328102,0.2537313432835817,0.39552238805970263,0.45522388059701635,0.5447761194029836,0.7910447761194053,0.9029850746268661,1.0,0.6119402985074641
402,0.0,0.006172839506174904,0.05555555555555769,0.31481481481481594,0.38888888888889284,0.4567901234567894,0.7283950617283974,0.8827160493827206,1.0,0.49382716049382785
403,0.0,0.24390243902439007,0.24390243902439007,0.2560975609756096,0.41463414634146334,0.7073170731707316,0.695121951219512,0.7073170731707316,1.0,0.7073170731707316
404,0.0,0.138888888888889,0.20138888888888903,0.20138888888888903,0.24305555555555575,0.2916666666666665,0.6666666666666667,0.8402777777777777,1.0,0.3541666666666666
405,0.0,0.1707317073170733,0.3536585365853661,0.45121951219512224,0.5365853658536589,0.609756097560976,0.609756097560976,0.7073170731707316,1.0,0.7073170731707316
406,0.0,0.1347517730496455,0.24113475177304983,0.25531914893616964,0.3191489361702122,0.361702127659574,0.680851063829787,0.8581560283687942,1.0,0.4042553191489357
407,0.0,0.13698630136986312,0.23972602739726045,0.36301369863013727,0.4041095890410962,0.45205479452054753,0.691780821917808,0.8630136986301369,1.0,0.4931506849315065
408,0.0,0.19417475728155362,0.3398058252427188,0.5339805825242724,0.6601941747572823,0.728155339805826,0.728155339805826,0.786407766990291,1.0,0.786407766990291
409,0.0,0.1418439716312059,0.19148936170212796,0.21985815602836914,0.3120567375886522,0.4255319148936169,0.7872340425531912,0.9645390070921993,1.0,0.48936170212765956
410,0.0,0.24390243902438818,0.24390243902438818,0.2560975609756091,0.41463414634146184,0.7073170731707309,0.6951219512195127,0.7073170731707309,1.0,0.7073170731707309
411,0.0,0.027586206896551745,0.13103448275862004,0.3310344827586194,0.372413793103447,0.42068965517241336,0.6620689655172404,0.8344827586206895,1.0,0.45517241379310225
412,0.0,0.1904761904761907,0.33333333333333265,0.5238095238095233,0.6476190476190462,0.714285714285714,0.714285714285714,0.7714285714285712,1.0,0.7714285714285712
413,0.0,0.146551724137932,0.2413793103448276,0.2413793103448276,0.29310344827586204,0.353448275862068,0.6551724137931034,0.8706896551724128,1.0,0.3879310344827577
414,0.0,0.2878787878787872,0.39393939393939525,0.39393939393939525,0.5,0.5909090909090912,0.5909090909090912,0.6818181818181824,1.0,0.6818181818181824
415,0.0,0.054263565891473776,0.10077519379845055,0.17054263565891487,0.2713178294573637,0.38759689922480656,0.8062015503875976,1.0,1.0,0.45736434108527085
416,0.0,0.010526315789472529,0.16842105263157914,0.5368421052631573,0.6105263157894744,0.6736842105263166,0.6736842105263166,0.7473684210526312,1.0,0.7473684210526312
417,0.0,0.08695652173912911,0.13043478260869507,0.38509316770186225,0.46583850931676846,0.5031055900621114,0.7267080745341613,0.8819875776397508,1.0,0.5527950310559003
418,0.0,0.05600000000000094,0.17600000000000193,0.3440000000000012,0.4480000000000004,0.48799999999999955,0.6080000000000005,0.8079999999999998,1.0,0.5600000000000023
419,0.0,0.1226993865030674,0.21472392638036863,0.42944785276073727,0.4785276073619642,0.5153374233128831,0.8466257668711664,1.0,1.0,0.5582822085889574
420,0.0,0.15873015873015844,0.23809523809523944,0.23809523809523944,0.30952380952380987,0.35714285714285915,0.7857142857142853,0.9841269841269824,1.0,0.41269841269841195
421,0.0,0.109289617486339,0.14754098360655582,0.2404371584699458,0.31147540983606553,0.437158469945356,0.7704918032786893,0.8688524590163932,1.0,0.4863387978142079
422,0.0,0.011235955056178542,0.17977528089887662,0.5730337078651655,0.6516853932584253,0.7191011235955015,0.7191011235955015,0.7865168539325827,1.0,0.7865168539325827
423,0.0,0.04724409448818735,0.16535433070866098,0.3228346456692913,0.42519685039370014,0.48031496062992163,0.8976377952755912,0.9527559055118127,1.0,0.5511811023622044
424,0.0,0.04929577464788818,0.09154929577464725,0.34507042253521103,0.39436619718309923,0.4436619718309874,0.8239436619718314,1.0,1.0,0.48591549295774644
425,0.0,0.16000000000000014,0.16000000000000014,0.16799999999999926,0.272000000000002,0.3200000000000003,0.7600000000000016,0.8079999999999998,1.0,0.39199999999999946
426,0.0,0.06593406593406373,0.2307692307692304,0.5274725274725294,0.5934065934065932,0.6703296703296716,0.6703296703296716,0.7362637362637353,1.0,0.7362637362637353
427,0.0,0.11695906432748561,0.15204678362573,0.3450292397660806,0.4210526315789482,0.5380116959064338,0.8538011695906437,1.0,1.0,0.5906432748538016
428,0.0,0.1197604790419164,0.20958083832335436,0.4191616766467061,0.45508982035928236,0.49700598802395374,0.8203592814371268,0.8562874251497004,1.0,0.5329341317365274
429,0.0,0.06122448979591624,0.20408163265306167,0.4489795918367357,0.5510204081632643,0.612244897959185,0.612244897959185,0.7551020408163259,1.0,0.7040816326530617
430,0.0,0.04195804195804348,0.14685314685314596,0.3146853146853137,0.40559440559440685,0.4475524475524472,0.8251748251748261,1.0,1.0,0.4965034965034969
431,0.0,0.1904761904761907,0.33333333333333476,0.22857142857142881,0.2857142857142839,0.3523809523809517,0.7047619047619034,0.942857142857145,1.0,0.4190476190476195
432,0.0,0.16379310344827744,0.29310344827586127,0.31896551724137956,0.3620689655172408,0.4224137931034528,0.6551724137931021,0.7931034482758613,1.0,0.482758620689657
433,0.0,0.10204081632653264,0.1377551020408166,0.3010204081632652,0.3673469387755094,0.4744897959183657,0.7499999999999989,0.8775510204081636,1.0,0.520408163265306
434,0.0,0.007692307692310268,0.12307692307692329,0.39230769230769386,0.4384615384615418,0.49230769230769317,0.9000000000000007,0.9538461538461589,1.0,0.5615384615384651
435,0.0,0.1769911504424813,0.1769911504424813,0.18584070796460023,0.3008849557522095,0.3539823008849547,0.8318584070796455,0.8938053097345097,1.0,0.4159292035398267
436,0.0,0.15748031496063272,0.1653543307086668,0.181102362204728,0.28346456692913613,0.33858267716535373,0.6141732283464557,0.8110236220472449,1.0,0.4094488188976395
437,0.0,0.1743119266055058,0.31192660550458545,0.5963302752293533,0.660550458715597,0.7155963302752322,0.7155963302752322,0.7798165137614677,1.0,0.7798165137614677
438,0.0,0.1818181818181855,0.23636363636364194,0.23636363636364194,0.30000000000000243,0.3636363636363629,0.8454545454545428,0.9090909090909113,1.0,0.4454545454545476
439,0.0,0.040404040404040435,0.11616161616161598,0.2929292929292929,0.3585858585858586,0.47979797979797967,0.7525252525252523,0.8787878787878787,1.0,0.47979797979797967
440,0.0,0.07194244604316559,0.07194244604316559,0.07913669064748215,0.1726618705035966,0.345323741007194,0.6474820143884894,0.8273381294964034,1.0,0.345323741007194
441,0.0,0.0935960591133006,0.16748768472906422,0.3399014778325121,0.4039408866995073,0.5221674876847291,0.7586206896551727,0.8817733990147782,1.0,0.5221674876847291
442,0.0,0.045226130653266354,0.12060301507537695,0.2964824120603011,0.36180904522613083,0.4824120603015078,0.7537688442211048,0.879396984924623,1.0,0.4824120603015078
443,0.0,0.09154929577464725,0.09154929577464725,0.09859154929577481,0.19014084507042206,0.3591549295774646,0.654929577464789,0.8309859154929575,1.0,0.3591549295774646
444,0.0,0.08333333333333288,0.15686274509803938,0.32843137254901944,0.3921568627450985,0.509803921568628,0.7598039215686277,0.8823529411764705,1.0,0.509803921568628
445,0.0,0.04568527918781785,0.12182741116751276,0.29949238578680165,0.3654822335025383,0.48730964467005106,0.7512690355329942,0.8781725888324873,1.0,0.48730964467005106
446,0.0,0.062068965517240664,0.062068965517240664,0.06896551724137936,0.15862068965517176,0.32413793103448224,0.6620689655172404,0.8344827586206895,1.0,0.32413793103448224
447,0.0,0.08292682926829219,0.15609756097560984,0.32682926829268366,0.3902439024390246,0.5073170731707319,0.760975609756098,0.8829268292682926,1.0,0.5073170731707319
448,0.0,0.005291005291004707,0.0846560846560847,0.2698412698412682,0.3386243386243388,0.46560846560846586,0.7407407407407411,0.8730158730158729,1.0,0.46560846560846586
449,0.0,0.0052356020942402656,0.08376963350785355,0.2670157068062838,0.3350785340314142,0.46073298429319454,0.7434554973821991,0.8743455497382197,1.0,0.46073298429319454
450,0.0,0.005263157894736264,0.08421052631578957,0.26842105263157984,0.3368421052631583,0.46315789473684266,0.742105263157895,0.8736842105263156,1.0,0.46315789473684266
451,0.0,0.0967741935483871,0.21774193548387186,0.379032258064517,0.46774193548386916,0.5080645161290331,0.7419354838709677,0.9435483870967732,1.0,0.5806451612903226
452,0.0,0.12422360248447213,0.12422360248447213,0.13043478260869507,0.21118012422360125,0.3602484472049678,0.6956521739130412,0.8509316770186335,1.0,0.3602484472049678
453,0.0,0.005405405405407209,0.08648648648648653,0.27567567567567647,0.34594594594594613,0.475675675675676,0.7351351351351356,0.8702702702702702,1.0,0.475675675675676
454,0.0,0.047945205479449846,0.15068493150685106,0.34931506849315197,0.4383561643835623,0.45890410958904254,0.8287671232876687,1.0,1.0,0.5205479452054772
455,0.0,0.04827586206896341,0.04827586206896341,0.05517241379310366,0.14482758620689634,0.3103448275862073,0.6620689655172439,0.834482758620689,1.0,0.3103448275862073
456,0.0,0.10362694300518144,0.1813471502590675,0.31088082901554404,0.37823834196891193,0.5025906735751297,0.7461139896373055,0.8756476683937823,1.0,0.5492227979274613
457,0.0,0.07407407407407411,0.15343915343915354,0.29629629629629645,0.3650793650793653,0.46560846560846586,0.7407407407407406,0.8730158730158729,1.0,0.5132275132275135
458,0.0,0.10101010101010112,0.1717171717171719,0.3383838383838382,0.40404040404040337,0.5151515151515146,0.7525252525252528,0.8787878787878787,1.0,0.5606060606060607
459,0.0,0.10050251256281413,0.17587939698492527,0.3316582914572866,0.39698492462311635,0.49748743718592936,0.7537688442211059,0.879396984924623,1.0,0.5427135678391963
460,0.0,0.07253886010362698,0.15025906735751363,0.31606217616580384,0.3834196891191712,0.4870466321243526,0.7461139896373061,0.8756476683937823,1.0,0.5336787564766837
461,0.0,0.10050251256281424,0.16582914572864293,0.34170854271356843,0.4070351758793971,0.502512562814069,0.7537688442211057,0.8793969849246229,1.0,0.5477386934673371
462,0.0,0.09950248756218912,0.13930348258706476,0.3432835820895519,0.40796019900497427,0.5074626865671633,0.7562189054726373,0.8805970149253731,1.0,0.5522388059701479
463,0.0,0.13157894736842143,0.13157894736842143,0.13815789473684179,0.22368421052631499,0.3750000000000004,0.6776315789473683,0.8421052631578942,1.0,0.43421052631578927
464,0.0,0.09950248756218912,0.15920398009950257,0.3482587064676608,0.41293532338308536,0.5124378109452745,0.7562189054726373,0.8805970149253731,1.0,0.5572139303482591
465,0.0,0.05759162303664989,0.13612565445026084,0.31937172774869105,0.3874345549738215,0.5078534031413615,0.7434554973821991,0.8743455497382197,1.0,0.5549738219895286
466,0.0,0.10204081632653061,0.17857142857142913,0.316326530612246,0.3826530612244904,0.4897959183673469,0.7500000000000006,0.8775510204081632,1.0,0.5357142857142851
467,0.0,0.09326424870466442,0.17098445595854875,0.30569948186528345,0.3730569948186508,0.48186528497409525,0.7461139896373038,0.8756476683937823,1.0,0.528497409326424
468,0.0,0.0932642487046619,0.17098445595855066,0.305699481865285,0.37305699481865223,0.47668393782383567,0.7461139896373045,0.8756476683937826,1.0,0.5233160621761643
469,0.0,0.13698630136986312,0.13698630136986312,0.14383561643835627,0.23287671232876653,0.35616438356164337,0.6643835616438354,0.8356164383561643,1.0,0.41780821917808175
470,0.0,0.10471204188481688,0.18324607329842954,0.34031413612565425,0.4083769633507852,0.5235602094240838,0.7434554973821992,0.8743455497382203,1.0,0.5706806282722514
471,0.0,0.10309278350515476,0.1649484536082476,0.35567010309278335,0.4226804123711345,0.520618556701031,0.7474226804123714,0.8762886597938143,1.0,0.56701030927835
472,0.0,0.10752688172043011,0.1881720430107533,0.3279569892473124,0.3978494623655914,0.5107526881720424,0.7365591397849457,0.8709677419354839,1.0,0.5430107526881714
473,0.0,0.10695187165775408,0.18716577540106905,0.3262032085561493,0.39572192513368887,0.5080213903743312,0.737967914438502,0.8716577540106951,1.0,0.55614973262032
474,0.0,0.136986301369863,0.136986301369863,0.1438356164383554,0.2328767123287671,0.3630136986301362,0.6643835616438348,0.8356164383561644,1.0,0.4246575342465753
475,0.0,0.07894736842105331,0.14736842105263176,0.3421052631578946,0.410526315789473,0.5000000000000012,0.742105263157895,0.8736842105263156,1.0,0.5473684210526322
476,0.0,0.1360544217687078,0.1360544217687078,0.14285714285714243,0.23129251700680173,0.3809523809523818,0.6666666666666666,0.8367346938775506,1.0,0.4421768707482996
477,0.0,0.10638297872340215,0.1861702127659561,0.3297872340425528,0.3989361702127651,0.4893617021276584,0.7393617021276595,0.8723404255319146,1.0,0.5372340425531922
478,0.0,0.1069518716577542,0.18716577540106807,0.3315508021390368,0.4010695187165765,0.5294117647058815,0.7379679144385028,0.871657754010695,1.0,0.5775401069518726
479,0.0,0.030487804878048103,0.0975609756097561,0.2256097560975603,0.30487804878048647,0.4512195121951206,0.7012195121951199,0.8536585365853658,1.0,0.5060975609756078
480,0.0,0.08602150537634419,0.16666666666666746,0.3172043010752698,0.3870967741935489,0.5161290322580652,0.7365591397849465,0.8709677419354838,1.0,0.5645161290322581
481,0.0,0.07486631016042658,0.15508021390374263,0.31550802139037476,0.3850267379679142,0.49732620320855525,0.7379679144385011,0.8716577540106952,1.0,0.5454545454545463
482,0.0,0.10526315789473488,0.1842105263157907,0.3263157894736865,0.3947368421052651,0.5157894736842111,0.7421052631578967,0.8736842105263154,1.0,0.5631578947368446
483,0.0,0.10000000000000012,0.17500000000000018,0.3399999999999998,0.4049999999999999,0.52,0.7550000000000003,0.8800000000000004,1.0,0.5650000000000001
484,0.0,0.06770833333333337,0.13541666666666674,0.3177083333333329,0.3854166666666663,0.48958333333333304,0.744791666666666,0.8749999999999999,1.0,0.520833333333333
485,0.0,0.09183673469387765,0.16836734693877514,0.3418367346938774,0.4081632653061229,0.5255102040816327,0.7500000000000003,0.8775510204081631,1.0,0.571428571428571
486,0.0,0.0952380952380954,0.17460317460317432,0.30687830687830625,0.37566137566137575,0.47089947089947115,0.7407407407407409,0.873015873015874,1.0,0.5185185185185183
487,0.0,0.0851063829787234,0.1648936170212772,0.3085106382978712,0.3776595744680857,0.46808510638297873,0.7393617021276602,0.8723404255319149,1.0,0.5159574468085101
488,0.0,0.07291666666666782,0.14583333333333334,0.30729166666666724,0.375,0.5,0.7447916666666673,0.875,1.0,0.5468749999999994
489,0.0,0.1,0.17500000000000054,0.3449999999999994,0.40999999999999887,0.5,0.7550000000000006,0.88,1.0,0.5350000000000006
490,0.0,0.13157894736842105,0.13157894736842105,0.13815789473684428,0.22368421052631726,0.3684210526315789,0.6776315789473691,0.8421052631578947,1.0,0.42763157894737064
491,0.0,0.09090909090908988,0.1666666666666663,0.33838383838383707,0.4040404040404045,0.5151515151515146,0.7525252525252528,0.8787878787878787,1.0,0.5454545454545461
492,0.0,0.10152284263959396,0.17766497461928776,0.33502538071065896,0.4010152284263945,0.4974619289340093,0.7512690355329931,0.8781725888324873,1.0,0.543147208121826
493,0.0,0.06735751295336719,0.13471502590673667,0.30051813471502653,0.3678756476683937,0.4715025906735749,0.7461139896373045,0.8756476683937826,1.0,0.5181347150259036
494,0.0,0.07978723404255161,0.15957446808510795,0.2925531914893606,0.36170212765957294,0.4734042553191471,0.739361702127662,0.8723404255319146,1.0,0.5212765957446809
495,0.0,0.138888888888889,0.24305555555555575,0.25694444444444464,0.3263888888888891,0.4722222222222222,0.6597222222222223,0.8333333333333336,1.0,0.5347222222222222
496,0.0,0.13380281690140855,0.23943661971830926,0.24647887323943604,0.32394366197183044,0.4647887323943658,0.6549295774647884,0.8309859154929576,1.0,0.5281690140845067
497,0.0,0.11510791366906484,0.22302158273381312,0.23741007194244623,0.309352517985611,0.46043165467625935,0.6474820143884897,0.8273381294964027,1.0,0.5251798561151075
498,0.0,0.13194444444444522,0.2361111111111111,0.25,0.32638888888888967,0.47916666666666746,0.659722222222223,0.8333333333333334,1.0,0.5416666666666666
499,0.0,0.12676056338028033,0.23239436619718268,0.24647887323943624,0.32394366197182994,0.46478873239436536,0.654929577464789,0.8309859154929575,1.0,0.5281690140845071
500,0.0,0.0762711864406789,0.0762711864406789,0.0847457627118644,0.1949152542372891,0.21186440677966195,0.6694915254237279,0.8813559322033898,1.0,0.288135593220339
501,0.0,0.1388888888888891,0.24305555555555516,0.2500000000000004,0.3263888888888886,0.47222222222222143,0.6597222222222224,0.833333333333333,1.0,0.5347222222222208
502,0.0,0.10791366906474927,0.2158273381294953,0.23021582733813004,0.30935251798561303,0.4532374100719411,0.6474820143884892,0.8273381294964025,1.0,0.5179856115107926
503,0.0,0.1338028169014063,0.14788732394366141,0.14788732394366141,0.2042253521126756,0.27464788732394174,0.654929577464789,0.8309859154929575,1.0,0.33802816901408506
504,0.0,0.1388888888888889,0.24305555555555633,0.25,0.32638888888888967,0.46527777777777857,0.659722222222223,0.8333333333333334,1.0,0.5277777777777778
505,0.0,0.04716981132075776,0.04716981132075776,0.05660377358490764,0.1792452830188686,0.22641509433962217,0.5660377358490554,0.7735849056603779,1.0,0.30188679245282957
506,0.0,0.1258741258741246,0.23076923076923053,0.23776223776223676,0.31468531468531463,0.4475524475524486,0.6573426573426573,0.8321678321678317,1.0,0.5104895104895109
507,0.0,0.2020202020202027,0.35353535353535587,0.4141414141414144,0.515151515151518,0.7575757575757612,0.7474747474747477,0.7575757575757612,1.0,0.7575757575757612
508,0.0,0.10071942446043029,0.20863309352517956,0.22302158273381428,0.2949640287769783,0.46762589928057585,0.6474820143884892,0.8273381294964025,1.0,0.5323741007194241
509,0.0,0.08759124087590953,0.18978102189780938,0.19708029197080454,0.2919708029197092,0.44525547445255576,0.6423357664233603,0.824817518248181,1.0,0.5109489051094928
510,0.0,0.17094017094017488,0.17094017094017488,0.1794871794871787,0.29059829059829656,0.3333333333333384,0.8205128205128213,0.9829059829059847,1.0,0.41025641025641063
511,0.0,0.056603773584907875,0.15094339622641542,0.3396226415094389,0.4056603773584925,0.6320754716981156,0.6509433962264154,0.7735849056603769,1.0,0.7169811320754774
512,0.0,0.16393442622950835,0.28688524590163916,0.5737704918032788,0.6229508196721313,0.69672131147541,0.69672131147541,0.80327868852459,1.0,0.7704918032786883
513,0.0,0.04026845637583896,0.08053691275167792,0.09395973154362423,0.1812080536912753,0.3422818791946311,0.6711409395973159,0.8389261744966442,1.0,0.3422818791946311
514,0.0,0.04000000000000003,0.10000000000000007,0.10000000000000007,0.18000000000000013,0.3399999999999995,0.6733333333333331,0.8399999999999999,1.0,0.3399999999999995
515,0.0,0.041095890410958937,0.10273972602739734,0.10273972602739734,0.19178082191780838,0.35616438356164337,0.6986301369863012,0.8698630136986308,1.0,0.35616438356164337
516,0.0,0.040000000000000056,0.09999999999999941,0.09999999999999941,0.18666666666666695,0.3466666666666672,0.686666666666667,0.8399999999999997,1.0,0.3466666666666672
517,0.0,0.04026845637583896,0.08053691275167792,0.08724832214765181,0.17449664429530215,0.33557046979865796,0.6711409395973159,0.8389261744966442,1.0,0.33557046979865796
518,0.0,0.04,0.08,0.09333333333333334,0.18000000000000074,0.34000000000000075,0.6733333333333341,0.84,1.0,0.34000000000000075
519,0.0,0.041095890410958964,0.10273972602739666,0.10273972602739666,0.1849315068493146,0.34931506849315047,0.6917808219178085,0.8493150684931504,1.0,0.34931506849315047
520,0.0,0.04,0.09999999999999926,0.09999999999999926,0.18666666666666668,0.3466666666666667,0.6733333333333326,0.84,1.0,0.3466666666666667
521,0.0,0.04000000000000154,0.1000000000000009,0.1000000000000009,0.18666666666666695,0.3466666666666672,0.6733333333333336,0.8399999999999997,1.0,0.3466666666666672
522,0.0,0.04054054054054204,0.08108108108108109,0.0878378378378371,0.17567567567567718,0.3378378378378393,0.6756756756756757,0.8378378378378378,1.0,0.3378378378378393
523,0.0,0.040268456375837466,0.10067114093959814,0.10067114093959814,0.18120805369127604,0.3422818791946289,0.6778523489932884,0.8389261744966442,1.0,0.3422818791946289
524,0.0,0.04026845637584044,0.10067114093959814,0.10067114093959814,0.18120805369127604,0.3422818791946319,0.6778523489932913,0.8389261744966442,1.0,0.3422818791946319
525,0.0,0.03973509933774978,0.09933774834437152,0.09933774834437152,0.17880794701986816,0.33774834437086143,0.6754966887417199,0.8410596026490067,1.0,0.33774834437086143
526,0.0,0.03999999999999858,0.09999999999999792,0.09999999999999792,0.18666666666666695,0.3466666666666672,0.6799999999999995,0.8399999999999997,1.0,0.3466666666666672
527,0.0,0.041095890410957445,0.08219178082191793,0.09589041095890273,0.1849315068493161,0.3493150684931489,0.6917808219178085,0.8561643835616444,1.0,0.3493150684931489
528,0.0,0.11333333333333538,0.21333333333333301,0.24666666666666853,0.31333333333333363,0.36000000000000093,0.6933333333333324,0.859999999999998,1.0,0.3999999999999994
529,0.0,0.12345679012345696,0.2037037037037033,0.2530864197530861,0.32098765432098536,0.4197530864197509,0.6975308641975284,0.8518518518518516,1.0,0.4753086419753086
530,0.0,0.06790123456790201,0.12345679012345422,0.27777777777777746,0.33950617283950457,0.38888888888888734,0.7345679012345668,0.8580246913580265,1.0,0.4197530864197509
531,0.0,0.18518518518518506,0.32407407407407407,0.5185185185185182,0.6388888888888886,0.7592592592592591,0.7592592592592591,0.824074074074074,1.0,0.824074074074074
532,0.0,0.18018018018017987,0.27027027027027006,0.27027027027027006,0.37837837837837823,0.4954954954954955,0.5585585585585586,0.7837837837837835,1.0,0.5765765765765767
533,0.0,0.21276595744680876,0.21276595744680876,0.2234042553191492,0.3617021276595737,0.5106382978723398,0.5425531914893612,0.8085106382978721,1.0,0.6063829787234037
534,0.0,0.007936507936507943,0.1269841269841271,0.4047619047619051,0.5079365079365084,0.6269841269841266,0.6587301587301584,0.857142857142857,1.0,0.6984126984126982
535,0.0,0.21052631578947392,0.21052631578947392,0.22105263157894764,0.35789473684210565,0.4947368421052626,0.4947368421052626,0.7473684210526312,1.0,0.5894736842105258
536,0.0,0.007812500000000007,0.1250000000000001,0.39843750000000033,0.5000000000000004,0.6015625000000006,0.6171874999999997,0.8124999999999999,1.0,0.6718749999999997
537,0.0,0.008196721311475417,0.13114754098360668,0.41803278688524625,0.5245901639344258,0.6393442622950817,0.6557377049180325,0.8606557377049188,1.0,0.7131147540983613
538,0.0,0.21978021978022005,0.23076923076922984,0.24175824175824207,0.38461538461538386,0.5384615384615379,0.5384615384615379,0.8131868131868142,1.0,0.6373626373626381
539,0.0,0.04800000000000004,0.16800000000000104,0.41600000000000037,0.5120000000000005,0.6159999999999997,0.6240000000000006,0.8239999999999998,1.0,0.6880000000000006
540,0.0,0.19607843137254902,0.26470588235294007,0.26470588235294007,0.3823529411764695,0.4999999999999989,0.5196078431372538,0.7647058823529411,1.0,0.5882352941176471
541,0.0,0.008474576271185516,0.1355932203389833,0.4322033898305083,0.5423728813559313,0.6610169491525417,0.6610169491525417,0.8305084745762709,1.0,0.7372881355932208
542,0.0,0.06722689075630259,0.1848739495798321,0.4369747899159668,0.5462184873949576,0.6470588235294115,0.6470588235294115,0.7983193277310923,1.0,0.7226890756302528
543,0.0,0.1914893617021281,0.3297872340425528,0.3297872340425528,0.46808510638297746,0.5851063829787236,0.5851063829787236,0.7446808510638292,1.0,0.6808510638297864
544,0.0,0.12857142857142856,0.23571428571428651,0.4857142857142857,0.5785714285714277,0.6642857142857135,0.6642857142857135,0.8285714285714286,1.0,0.7285714285714285
545,0.0,0.07777777777777921,0.12222222222222376,0.12222222222222376,0.26666666666666733,0.41111111111111087,0.6222222222222238,0.7666666666666673,1.0,0.5111111111111099
546,0.0,0.18348623853211027,0.32110091743118996,0.5596330275229353,0.678899082568806,0.7981651376146767,0.7981651376146767,0.9266055045871558,1.0,0.8807339449541253
547,0.0,0.20408163265306076,0.3469387755102056,0.4285714285714299,0.5408163265306144,0.6530612244897944,0.6530612244897944,0.755102040816327,1.0,0.7448979591836752
548,0.0,0.18181818181818218,0.2545454545454551,0.2545454545454551,0.3454545454545441,0.4545454545454534,0.5545454545454547,0.7818181818181814,1.0,0.5363636363636344
549,0.0,0.28169014084507177,0.28169014084507177,0.29577464788732377,0.47887323943661886,0.661971830985914,0.661971830985914,0.7887323943662009,1.0,0.7887323943662009
550,0.0,0.1322314049586778,0.2561983471074355,0.5454545454545441,0.6528925619834689,0.7685950413223138,0.7685950413223138,0.8181818181818162,1.0,0.8181818181818162
551,0.0,0.225806451612906,0.3709677419354843,0.3709677419354843,0.5161290322580626,0.6451612903225783,0.3709677419354843,0.7419354838709686,1.0,0.7419354838709686
552,0.0,0.12222222222221882,0.22222222222221782,0.45555555555555544,0.5444444444444445,0.6333333333333336,0.6333333333333336,0.7333333333333327,1.0,0.7333333333333327
553,0.0,0.2666666666666635,0.3466666666666673,0.3466666666666673,0.5200000000000009,0.8400000000000043,0.8400000000000043,0.8933333333333322,1.0,0.8933333333333322
554,0.0,0.05633802816901435,0.15492957746478478,0.2464788732394323,0.3098591549295758,0.4014084507042233,0.7887323943662009,0.9577464788732439,1.0,0.45774647887323766
555,0.0,0.14000000000000284,0.1700000000000041,0.1700000000000041,0.2900000000000002,0.5300000000000012,0.6299999999999994,0.8500000000000026,1.0,0.5300000000000012
556,0.0,0.10989010989010996,0.19230769230769212,0.2802197802197801,0.35164835164835156,0.44505494505494503,0.7307692307692306,0.868131868131868,1.0,0.4945054945054945
557,0.0,0.10497237569060724,0.18784530386740292,0.2817679558011047,0.3535911602209943,0.4751381215469613,0.7292817679558008,0.8674033149171269,1.0,0.5248618784530387
558,0.0,0.09890109890109902,0.18131868131868092,0.2747252747252751,0.346153846153846,0.4505494505494511,0.7307692307692311,0.8681318681318679,1.0,0.5
559,0.0,0.10752688172043023,0.18817204301075233,0.28494623655913953,0.35483870967741976,0.46236559139785,0.7365591397849465,0.8709677419354838,1.0,0.510752688172043
560,0.0,0.10869565217391318,0.19021739130434745,0.2826086956521743,0.35326086956521724,0.483695652173913,0.7336956521739133,0.8695652173913042,1.0,0.5326086956521745
561,0.0,0.1063829787234045,0.1861702127659561,0.28723404255319096,0.3563829787234033,0.4627659574468078,0.7393617021276595,0.8723404255319146,1.0,0.5106382978723416
562,0.0,0.07734806629834381,0.1602209944751376,0.27624309392265334,0.33701657458563494,0.43646408839779094,0.7292817679558016,0.867403314917127,1.0,0.4861878453038677
563,0.0,0.20408163265306167,0.20408163265306167,0.21428571428571364,0.3469387755102026,0.5918367346938767,0.6530612244897974,0.7653061224489779,1.0,0.5918367346938767
564,0.0,0.10582010582010588,0.18518518518518587,0.29100529100529177,0.35978835978836,0.46560846560846586,0.7407407407407411,0.8730158730158729,1.0,0.5132275132275129
565,0.0,0.07407407407407295,0.15343915343915293,0.29100529100529177,0.35978835978836,0.4550264550264541,0.7407407407407411,0.8730158730158729,1.0,0.5026455026455036
566,0.0,0.10416666666666667,0.18229166666666724,0.29687499999999944,0.3645833333333322,0.46874999999999883,0.7447916666666673,0.875,1.0,0.5156250000000006
567,0.0,0.14598540145985414,0.14598540145985414,0.15328467153284928,0.24817518248175366,0.4233576642335786,0.8175182481751864,1.0,1.0,0.4233576642335786
568,0.0,0.09493670886076287,0.1645569620253148,0.3227848101265825,0.3797468354430403,0.45569620253164494,0.8291139240506324,0.89873417721519,1.0,0.5000000000000028
569,0.0,0.07368421052631254,0.15263157894736837,0.28947368421052555,0.35789473684210416,0.45789473684210513,0.7421052631578967,0.8736842105263154,1.0,0.5052631578947386
570,0.0,0.04666666666666672,0.14666666666666683,0.3666666666666667,0.4400000000000001,0.5600000000000003,0.7200000000000004,0.8866666666666665,1.0,0.6200000000000003
571,0.0,0.006896551724137936,0.11034482758620698,0.35172413793103474,0.4413793103448279,0.5586206896551729,0.7241379310344825,0.8965517241379309,1.0,0.6206896551724143
572,0.0,0.12422360248447213,0.21739130434782555,0.34782608695652195,0.42857142857142816,0.5341614906832288,0.6956521739130426,0.8509316770186335,1.0,0.5900621118012419
573,0.0,0.11695906432748546,0.2046783625730989,0.4093567251461978,0.46783625730994055,0.5672514619883038,0.7368421052631571,0.8654970760233911,1.0,0.6198830409356716
574,0.0,0.006944444444443684,0.11111111111111129,0.35416666666666646,0.4374999999999999,0.5625000000000001,0.7152777777777781,0.8888888888888887,1.0,0.625000000000001
575,0.0,0.15624999999999853,0.2656249999999987,0.2812499999999988,0.3828124999999998,0.5234375,0.6874999999999994,0.8828125000000007,1.0,0.5937499999999993
576,0.0,0.1324503311258281,0.23178807947019697,0.31125827814569385,0.3973509933774843,0.5165562913907281,0.6754966887417219,0.8410596026490063,1.0,0.57615894039735
577,0.0,0.14388489208633082,0.25179856115107974,0.2805755395683459,0.35971223021582865,0.4892086330935248,0.6474820143884903,0.8273381294964031,1.0,0.5539568345323729
578,0.0,0.1212121212121213,0.21212121212121293,0.4181818181818205,0.4848484848484852,0.5939393939393957,0.7333333333333332,0.8848484848484868,1.0,0.6484848484848496
579,0.0,0.11560693641618505,0.20231213872832446,0.40462427745664636,0.4739884393063574,0.5722543352601166,0.7225433526011559,0.8670520231213865,1.0,0.6242774566473992
580,0.0,0.11627906976744186,0.2034883720930239,0.40697674418604524,0.46511627906976744,0.5639534883720924,0.726744186046511,0.8662790697674412,1.0,0.6162790697674406
581,0.0,0.11904761904761672,0.2083333333333319,0.39285714285714257,0.45238095238095094,0.5535714285714294,0.7380952380952374,0.8690476190476201,1.0,0.6071428571428574
582,0.0,0.11695906432748561,0.20467836257309788,0.4093567251461983,0.46783625730994244,0.5730994152046782,0.7251461988304108,0.8713450292397645,1.0,0.625730994152046
583,0.0,0.11627906976743958,0.20348837209302442,0.38953488372093187,0.46511627906976866,0.5581395348837224,0.7267441860465128,0.8720930232558175,1.0,0.6104651162790681
584,0.0,0.11627906976744197,0.19767441860465104,0.40697674418604657,0.45930232558139544,0.5813953488372092,0.7151162790697675,0.86046511627907,1.0,0.6337209302325582
585,0.0,0.10650887573964507,0.16568047337278122,0.4023668639053255,0.4615384615384617,0.579881656804734,0.7100591715976335,0.8579881656804732,1.0,0.6331360946745566
586,0.0,0.11976047904191625,0.16766467065868274,0.40718562874251524,0.46107784431137755,0.586826347305389,0.7065868263473052,0.8562874251497005,1.0,0.6407185628742512
587,0.0,0.1212121212121213,0.17575757575757586,0.39393939393939353,0.4545454545454542,0.5878787878787876,0.7030303030303028,0.8545454545454545,1.0,0.6424242424242422
588,0.0,0.12048192771084337,0.19879518072289157,0.40361445783132466,0.4578313253012048,0.560240963855421,0.7048192771084331,0.8554216867469879,1.0,0.5903614457831325
589,0.0,0.10493827160493772,0.16049382716049404,0.39506172839506226,0.45061728395061723,0.5864197530864199,0.7037037037037047,0.8580246913580252,1.0,0.6419753086419762
590,0.0,0.12269938650306757,0.18404907975460136,0.40490797546012297,0.4601226993865041,0.6073619631901838,0.6993865030674852,0.8527607361963189,1.0,0.6625766871165649
591,0.0,0.1197604790419164,0.17365269461077812,0.3952095808383228,0.44910179640718584,0.5748502994011975,0.7065868263473055,0.8562874251497017,1.0,0.6287425149700605
592,0.0,0.12422360248447213,0.1863354037267082,0.40372670807453515,0.4596273291925469,0.5838509316770191,0.6956521739130439,0.8509316770186335,1.0,0.6211180124223606
593,0.0,0.10559006211180062,0.1801242236024839,0.39130434782608653,0.44720496894409834,0.5652173913043476,0.6956521739130426,0.8509316770186335,1.0,0.6211180124223593
594,0.0,0.12195121951219545,0.17682926829268272,0.40243902439024365,0.4573170731707309,0.5975609756097564,0.7012195121951218,0.8536585365853655,1.0,0.6524390243902436
595,0.0,0.11976047904191608,0.17365269461077767,0.3952095808383244,0.45508982035928114,0.5988023952095805,0.7065868263473036,0.8562874251497007,1.0,0.652694610778442
596,0.0,0.12048192771084354,0.18674698795180814,0.3975903614457823,0.45180722891566394,0.5963855421686761,0.7048192771084341,0.8554216867469877,1.0,0.6506024096385551
597,0.0,0.125,0.1875000000000014,0.4,0.4562499999999993,0.5937500000000007,0.6937500000000006,0.85,1.0,0.65
598,0.0,0.12422360248447213,0.1987577639751554,0.40993788819875665,0.4596273291925455,0.6024844720496891,0.6956521739130439,0.8509316770186335,1.0,0.6583850931677009
599,0.0,0.10062893081761028,0.1635220125786153,0.38364779874213845,0.4465408805031463,0.5031446540880513,0.6918238993710693,0.8490566037735846,1.0,0.5283018867924539
600,0.0,0.1212121212121213,0.1818181818181806,0.39393939393939353,0.44848484848484743,0.5090909090909095,0.7030303030303008,0.8545454545454545,1.0,0.5393939393939391
601,0.0,0.12422360248447213,0.18012422360248667,0.3913043478260879,0.4534161490683226,0.5714285714285718,0.6956521739130439,0.8509316770186335,1.0,0.6273291925465836
602,0.0,0.12195121951219512,0.1890243902439031,0.40243902439024254,0.4573170731707324,0.6036585365853665,0.7012195121951226,0.8536585365853658,1.0,0.6585365853658537
603,0.0,0.16814159292035513,0.30088495575221463,0.6106194690265483,0.637168141592921,0.6725663716814166,0.6725663716814166,0.7876106194690263,1.0,0.7522123893805307
604,0.0,0.10526315789473488,0.23157894736842422,0.3789473684210493,0.41052631578947163,0.45263157894737116,0.48421052631579353,0.7473684210526307,1.0,0.5473684210526288
605,0.0,0.22891566265060256,0.2409638554216869,0.2409638554216869,0.38554216867469904,0.6746987951807233,0.698795180722892,0.7590361445783131,1.0,0.7590361445783131
606,0.0,0.15625000000000014,0.17968750000000017,0.18750000000000017,0.2890625000000003,0.36718750000000033,0.6406250000000006,0.8359374999999999,1.0,0.4375000000000004
607,0.0,0.006451612903225816,0.09677419354838653,0.32903225806451586,0.3806451612903224,0.5032258064516129,0.709677419354839,0.8709677419354837,1.0,0.5612903225806453
608,0.0,0.08730158730158818,0.11904761904761993,0.11904761904761993,0.20634920634920634,0.3253968253968245,0.6507936507936508,0.8492063492063483,1.0,0.3968253968253968
609,0.0,0.0760233918128662,0.14035087719298256,0.3684210526315798,0.42690058479532256,0.538011695906433,0.8538011695906438,1.0,1.0,0.5672514619883038
610,0.0,0.07142857142857152,0.13690476190476142,0.3571428571428576,0.42857142857142916,0.5476190476190483,0.7321428571428574,0.8809523809523808,1.0,0.6011904761904763
611,0.0,0.25316455696202567,0.25316455696202567,0.26582278481012556,0.43037974683544367,0.7341772151898744,0.7215189873417718,0.7341772151898744,1.0,0.7341772151898744
612,0.0,0.08974358974358858,0.1858974358974357,0.26923076923076855,0.33974358974359,0.4935897435897443,0.83974358974359,1.0,1.0,0.4935897435897443
613,0.0,0.11111111111111138,0.17777777777777823,0.3722222222222213,0.4333333333333332,0.5555555555555569,0.8222222222222217,0.9611111111111129,1.0,0.5722222222222217
614,0.0,0.040935672514620505,0.12865497076023513,0.3157894736842116,0.3801169590643266,0.520467836257309,0.7368421052631587,0.8830409356725147,1.0,0.520467836257309
615,0.0,0.14285714285714332,0.16428571428571243,0.16428571428571243,0.24285714285714205,0.41428571428571404,0.6642857142857156,0.842857142857144,1.0,0.41428571428571404
616,0.0,0.1418439716312058,0.21276595744681026,0.21276595744681026,0.2836879432624116,0.45390070921985853,0.7872340425531928,0.9645390070921993,1.0,0.45390070921985853
617,0.0,0.19801980198019825,0.346534653465348,0.346534653465348,0.4158415841584141,0.5742574257425727,0.7128712871287136,0.792079207920793,1.0,0.6237623762376211
618,0.0,0.1645569620253148,0.25316455696202494,0.25316455696202494,0.3924050632911401,0.69620253164557,0.6835443037974702,0.69620253164557,1.0,0.69620253164557
619,0.0,0.006578947368420341,0.10526315789473716,0.3355263157894754,0.4210526315789486,0.5789473684210543,0.8486842105263175,0.9539473684210547,1.0,0.5789473684210543
620,0.0,0.14492753623188107,0.18115942028985135,0.18115942028985135,0.2608695652173885,0.43478260869564966,0.7608695652173885,0.9420289855072462,1.0,0.43478260869564966
621,0.0,0.15748031496063272,0.15748031496063272,0.16535433070865982,0.26771653543307494,0.37795275590551014,0.8031496062992108,1.0,1.0,0.4488188976377959
622,0.0,0.14925373134328002,0.2611940298507467,0.1940298507462667,0.2313432835820867,0.4104477611940267,0.8134328358208933,1.0,1.0,0.4104477611940267
623,0.0,0.13513513513513523,0.13513513513513523,0.141891891891892,0.2297297297297299,0.3040540540540543,0.6689189189189191,0.8378378378378377,1.0,0.36486486486486513
624,0.0,0.19230769230769232,0.3173076923076923,0.4519230769230769,0.5384615384615384,0.7692307692307693,0.7596153846153846,0.7692307692307693,1.0,0.7692307692307693
625,0.0,0.1333333333333328,0.23333333333333295,0.293333333333333,0.3666666666666665,0.5266666666666667,0.7533333333333337,0.9199999999999999,1.0,0.5733333333333335
626,0.0,0.08024691358024634,0.14197530864197483,0.33950617283950596,0.4197530864197537,0.5370370370370371,0.783950617283951,0.9382716049382716,1.0,0.5925925925925934
627,0.0,0.14814814814814828,0.25925925925925863,0.42962962962962997,0.5259259259259256,0.7037037037037035,0.7111111111111117,0.8222222222222221,1.0,0.770370370370371
628,0.0,0.1307189542483661,0.2287581699346414,0.2614379084967322,0.3202614379084977,0.41830065359477153,0.7712418300653601,0.9346405228758169,1.0,0.4640522875817004
629,0.0,0.0547945205479452,0.136986301369863,0.22602739726027474,0.3150684931506849,0.4794520547945205,0.6643835616438348,0.8356164383561644,1.0,0.4794520547945205
630,0.0,0.10810810810810811,0.22972972972972822,0.22972972972972822,0.3783783783783784,0.5540540540540525,0.5540540540540525,0.6756756756756757,1.0,0.6756756756756757
631,0.0,0.1450381679389325,0.17557251908397076,0.17557251908397076,0.26717557251908547,0.3969465648854972,0.8091603053435118,1.0,1.0,0.44274809160305284
632,0.0,0.006097560975609095,0.09756097560975636,0.3109756097560964,0.39024390243902274,0.524390243902439,0.76829268292683,0.9207317073170737,1.0,0.5792682926829263
633,0.0,0.12195121951219591,0.12195121951219591,0.130081300813008,0.23577235772357613,0.3008130081300801,0.6016260162601639,0.804878048780488,1.0,0.35772357723577203
634,0.0,0.2,0.3500000000000011,0.36,0.4899999999999989,0.68,0.68,0.76,1.0,0.76
635,0.0,0.12244897959183815,0.12244897959183815,0.12925170068027278,0.2176870748299318,0.34013605442177,0.6666666666666646,0.8367346938775512,1.0,0.4013605442176875
636,0.0,0.005464480874316343,0.08743169398907119,0.27868852459016263,0.34426229508196604,0.437158469945356,0.7377049180327864,0.8688524590163932,1.0,0.46448087431694013
637,0.0,0.10752688172043023,0.18817204301075352,0.37634408602150704,0.44623655913978605,0.5752688172043023,0.876344086021507,1.0,1.0,0.5752688172043023
638,0.0,0.1333333333333361,0.23333333333333373,0.23333333333333373,0.29333333333333583,0.45333333333333564,0.6733333333333316,0.8400000000000002,1.0,0.45333333333333564
639,0.0,0.10526315789473684,0.15789473684210525,0.27631578947368274,0.34868421052631504,0.5065789473684204,0.6776315789473663,0.8421052631578947,1.0,0.5065789473684204
640,0.0,0.13157894736842082,0.21052631578947356,0.21052631578947356,0.24999999999999992,0.38157894736842113,0.6776315789473685,0.8421052631578949,1.0,0.4407894736842106
641,0.0,0.13333333333333344,0.21333333333333349,0.21333333333333349,0.2533333333333335,0.39333333333333287,0.6733333333333331,0.8399999999999999,1.0,0.4533333333333329
642,0.0,0.1333333333333328,0.20666666666666622,0.20666666666666622,0.2399999999999996,0.3866666666666665,0.6733333333333336,0.8400000000000005,1.0,0.4466666666666666
643,0.0,0.13333333333333353,0.22000000000000033,0.22000000000000033,0.2533333333333337,0.4000000000000006,0.6733333333333336,0.8400000000000005,1.0,0.4600000000000007
644,0.0,0.13333333333333333,0.20666666666666741,0.20666666666666741,0.24,0.38666666666666666,0.6733333333333326,0.84,1.0,0.44666666666666743
645,0.0,0.1324503311258279,0.21192052980132467,0.21192052980132467,0.24503311258278238,0.3907284768211916,0.6754966887417223,0.8410596026490065,1.0,0.4503311258278149
646,0.0,0.13157894736842124,0.21710526315789433,0.21710526315789433,0.2500000000000004,0.3947368421052637,0.6776315789473687,0.842105263157896,1.0,0.45394736842105254
647,0.0,0.03921568627450989,0.13071895424836485,0.1568627450980381,0.24183006535947693,0.3790849673202608,0.6797385620915033,0.8431372549019619,1.0,0.43790849673202636
648,0.0,0.005813953488372738,0.09302325581395349,0.2965116279069774,0.32558139534883723,0.459302325581396,0.7151162790697668,0.8604651162790697,1.0,0.5116279069767442
649,0.0,0.13157894736842124,0.21710526315789433,0.21710526315789433,0.2500000000000004,0.4013157894736826,0.6776315789473687,0.8421052631578945,1.0,0.46052631578947434
650,0.0,0.1307189542483661,0.22222222222222093,0.22222222222222093,0.2549019607843117,0.3921568627450983,0.6797385620915037,0.8431372549019607,1.0,0.45098039215686236
651,0.0,0.13157894736842105,0.21052631578947367,0.21052631578947367,0.24999999999999853,0.3881578947368428,0.6776315789473663,0.8421052631578947,1.0,0.4473684210526316
652,0.0,0.1324503311258281,0.21192052980132203,0.21192052980132203,0.24503311258278127,0.3907284768211907,0.6754966887417219,0.8410596026490063,1.0,0.4503311258278126
653,0.0,0.1324503311258277,0.2052980132450337,0.2052980132450337,0.2384105960264899,0.3907284768211925,0.6754966887417229,0.8410596026490067,1.0,0.45033112582781426
654,0.0,0.1324503311258277,0.218543046357615,0.218543046357615,0.25165562913907413,0.4039735099337738,0.6754966887417199,0.8410596026490067,1.0,0.46357615894039556
655,0.0,0.13157894736842143,0.21710526315789463,0.21710526315789463,0.25657894736841963,0.39473684210526433,0.6776315789473683,0.8421052631578972,1.0,0.4539473684210532
656,0.0,0.14728682170542734,0.14728682170542734,0.15503875968992262,0.25581395348837144,0.38759689922480484,0.8062015503875976,1.0,1.0,0.4573643410852726
657,0.0,0.023437500000000867,0.023437500000000867,0.03125,0.1328125000000026,0.2968750000000017,0.71875,0.9140624999999991,1.0,0.3671875000000009
658,0.0,0.04895104895104674,0.10489510489510281,0.21678321678321497,0.30769230769230843,0.4475524475524455,0.8251748251748255,1.0,1.0,0.5104895104895109
659,0.0,0.13333333333333314,0.13333333333333314,0.140000000000002,0.22666666666666782,0.38000000000000167,0.7333333333333337,0.8999999999999994,1.0,0.44000000000000083
660,0.0,0.12345679012345696,0.21604938271604762,0.24691358024691393,0.3271604938271603,0.39506172839506226,0.6975308641975284,0.8518518518518516,1.0,0.45061728395061446
661,0.0,0.12738853503184439,0.12738853503184439,0.13375796178343888,0.21656050955413886,0.36942675159235555,0.7388535031847111,0.8726114649681499,1.0,0.36942675159235555
662,0.0,0.0061349693251554135,0.08588957055214855,0.31288343558282256,0.3926380368098157,0.5153374233128858,0.8466257668711638,1.0,1.0,0.5705521472392627
663,0.0,0.10434782608696028,0.10434782608696028,0.1130434782608685,0.226086956521737,0.36521739130434555,0.8173913043478273,0.8956521739130398,1.0,0.44347826086956577
664,0.0,0.09599999999999653,0.21600000000000108,0.13599999999999568,0.17600000000000193,0.24799999999999756,0.6159999999999997,0.8079999999999998,1.0,0.3200000000000003
665,0.0,0.06716417910447381,0.14925373134328102,0.19402985074626797,0.29104477611940194,0.4104477611940294,0.7985074626865654,0.9850746268656733,1.0,0.47761194029850984
666,0.0,0.11111111111111122,0.1709401709401711,0.1709401709401711,0.22222222222222243,0.4273504273504273,0.7692307692307695,0.9230769230769235,1.0,0.4273504273504273
667,0.0,0.09039548022598848,0.17514124293785296,0.37288135593220345,0.4293785310734464,0.4802259887005648,0.7796610169491527,0.9096045197740112,1.0,0.5310734463276835
668,0.0,0.1315789473684211,0.23026315789473692,0.34210526315789486,0.40789473684210503,0.5657894736842104,0.8026315789473684,0.9407894736842105,1.0,0.5657894736842104
669,0.0,0.08152173913043483,0.13043478260869573,0.35326086956521763,0.40760869565217417,0.45652173913043503,0.7499999999999999,0.8858695652173912,1.0,0.5054347826086953
670,0.0,0.13513513513513523,0.23648648648648665,0.34459459459459485,0.3851351351351354,0.5472972972972969,0.8648648648648648,0.9391891891891891,1.0,0.574324324324324
671,0.0,0.07909604519773958,0.1412429378531069,0.36158192090395463,0.42372881355932196,0.47457627118644063,0.757062146892655,0.8983050847457625,1.0,0.5254237288135594
672,0.0,0.11842105263157904,0.21710526315789488,0.36184210526315813,0.39473684210526344,0.5526315789473688,0.8618421052631577,0.9342105263157894,1.0,0.6118421052631583
673,0.0,0.09022556390977451,0.142857142857143,0.142857142857143,0.22556390977443627,0.3007518796992484,0.7218045112781961,0.8571428571428579,1.0,0.36842105263157926
674,0.0,0.14285714285714285,0.18571428571428572,0.3142857142857143,0.35714285714285715,0.5285714285714286,0.7571428571428571,0.9357142857142849,1.0,0.5285714285714286
675,0.0,0.08982035928143785,0.17964071856287436,0.3892215568862271,0.4491017964071853,0.5029940119760482,0.8263473053892221,0.9640718562874251,1.0,0.5568862275449099
676,0.0,0.0793650793650795,0.1269841269841272,0.23015873015872967,0.2777777777777774,0.4682539682539682,0.7301587301587315,0.9285714285714294,1.0,0.4682539682539682
677,0.0,0.07103825136611966,0.1530054644808744,0.3442622950819668,0.4098360655737701,0.459016393442622,0.754098360655737,0.8907103825136611,1.0,0.5081967213114751
678,0.0,0.14598540145985414,0.25547445255474394,0.29927007299270014,0.3430656934306564,0.3941605839416045,0.7810218978102188,0.9343065693430648,1.0,0.45255474452554617
679,0.0,0.05913978494623716,0.12365591397849522,0.3279569892473124,0.3978494623655914,0.44623655913978555,0.7365591397849457,0.8709677419354839,1.0,0.4946236559139785
680,0.0,0.057142857142857204,0.20000000000000126,0.08571428571428687,0.13333333333333347,0.3619047619047623,0.8095238095238093,0.9047619047619047,1.0,0.3619047619047623
681,0.0,0.07526881720430116,0.1397849462365581,0.34408602150537554,0.39784946236559066,0.4516129032258058,0.7419354838709674,0.8763440860215046,1.0,0.5
682,0.0,0.136986301369863,0.23972602739726104,0.34931506849315147,0.3835616438356164,0.5342465753424658,0.8698630136986294,0.9383561643835624,1.0,0.5958904109589048
683,0.0,0.045112781954887334,0.12030075187969788,0.12030075187969788,0.19548872180451177,0.2631578947368419,0.67669172932331,0.8571428571428593,1.0,0.3308270676691721
684,0.0,0.12096774193548476,0.21774193548387186,0.21774193548387186,0.2661290322580636,0.4596774193548378,0.8467741935483862,0.9193548387096792,1.0,0.5322580645161308
685,0.0,0.1118881118881118,0.14685314685314596,0.14685314685314596,0.20979020979021118,0.2797202797202795,0.6573426573426553,0.8321678321678323,1.0,0.3426573426573416
686,0.0,0.12068965517241188,0.18103448275861972,0.18103448275861972,0.22413793103448085,0.2844827586206887,0.706896551724136,0.9224137931034454,1.0,0.353448275862068
687,0.0,0.07650273224043608,0.1311475409836068,0.34972677595628476,0.40437158469945306,0.45355191256830746,0.7486338797814215,0.8852459016393447,1.0,0.5027322404371594
688,0.0,0.12578616352201283,0.18238993710691792,0.39622641509434114,0.43396226415094363,0.47169811320754884,0.8805031446540899,0.937106918238995,1.0,0.5283018867924539
689,0.0,0.12738853503184722,0.22292993630573335,0.22292993630573335,0.2802547770700639,0.3439490445859861,0.687898089171975,0.8471337579617834,1.0,0.40127388535031944
690,0.0,0.1282051282051282,0.22435897435897506,0.39102564102564313,0.4230769230769245,0.5769230769230783,0.8012820512820505,0.9423076923076931,1.0,0.5769230769230783
691,0.0,0.13793103448275873,0.15172413793103307,0.15172413793103307,0.22758620689655112,0.2896551724137918,0.6689655172413791,0.8344827586206895,1.0,0.35172413793103247
692,0.0,0.1212121212121213,0.21212121212121293,0.42424242424242586,0.45454545454545553,0.5878787878787876,0.8060606060606059,0.9454545454545461,1.0,0.6000000000000011
693,0.0,0.013157894736843567,0.11184210526316009,0.32236842105263375,0.3881578947368428,0.4473684210526316,0.8026315789473699,0.9605263157894751,1.0,0.5065789473684204
694,0.0,0.1449275362318838,0.2318840579710141,0.30434782608695765,0.34057971014492777,0.5144927536231884,0.7463768115942025,0.9275362318840564,1.0,0.5652173913043486
695,0.0,0.039106145251397245,0.06703910614525135,0.3184357541899458,0.374301675977654,0.43016759776536473,0.7262569832402243,0.8659217877094972,1.0,0.4804469273743026
696,0.0,0.12048192771084354,0.18072289156626664,0.4216867469879537,0.4578313253012054,0.6024096385542177,0.7951807228915674,0.945783132530121,1.0,0.6024096385542177
697,0.0,0.16528925619834725,0.18181818181818016,0.18181818181818016,0.27272727272727204,0.34710743801652744,0.8429752066115692,1.0,1.0,0.42148760330578644
698,0.0,0.12345679012345696,0.2037037037037033,0.4135802469135815,0.44444444444444503,0.5925925925925934,0.7901234567901245,0.9444444444444451,1.0,0.6358024691358041
699,0.0,0.1176470588235298,0.14705882352941224,0.14705882352941224,0.22058823529411672,0.2867647058823514,0.6838235294117662,0.8676470588235307,1.0,0.35294117647058937
700,0.0,0.11695906432748332,0.2046783625730958,0.4093567251461968,0.48538011695906197,0.5380116959064326,0.8771929824561404,1.0,1.0,0.5906432748538032
701,0.0,0.1190476190476164,0.20833333333333398,0.41666666666666796,0.47619047619047616,0.5297619047619068,0.8928571428571441,1.0,1.0,0.583333333333332
702,0.0,0.14814814814814825,0.237037037037037,0.237037037037037,0.28888888888888886,0.3333333333333333,0.7333333333333332,0.9185185185185185,1.0,0.3703703703703704
703,0.0,0.14705882352941188,0.17647058823529427,0.17647058823529427,0.2500000000000002,0.33088235294117674,0.7573529411764708,0.9044117647058822,1.0,0.3970588235294117
704,0.0,0.14876033057851246,0.2727272727272729,0.17355371900826455,0.21487603305785133,0.4132231404958675,0.8429752066115702,0.9256198347107437,1.0,0.4132231404958675
705,0.0,0.1570247933884299,0.19008264462809935,0.19008264462809935,0.272727272727273,0.34710743801652927,0.9008264462809916,1.0,1.0,0.4214876033057855
706,0.0,0.14705882352941188,0.2573529411764708,0.27205882352941196,0.30882352941176494,0.35294117647058854,0.7499999999999998,0.9338235294117646,1.0,0.4191176470588239
707,0.0,0.09836065573770443,0.18032786885245863,0.37158469945355177,0.4316939890710382,0.4808743169398907,0.7759562841530052,0.9125683060109289,1.0,0.5300546448087432
708,0.0,0.10169491525423738,0.12711864406779674,0.12711864406779674,0.20338983050847476,0.4067796610169495,0.7118644067796608,0.923728813559322,1.0,0.4067796610169495
709,0.0,0.09285714285714293,0.13571428571428581,0.13571428571428581,0.2071428571428573,0.27142857142857163,0.7571428571428569,0.8357142857142864,1.0,0.33571428571428596
710,0.0,0.07079646017699122,0.20353982300885073,0.10619469026548684,0.15929203539823025,0.23893805309734634,0.6902654867256643,0.9115044247787609,1.0,0.3008849557522127
711,0.0,0.16129032258064546,0.2016129032258059,0.2016129032258059,0.2822580645161286,0.36290322580645135,0.82258064516129,0.9919354838709686,1.0,0.4354838709677427
712,0.0,0.14960629921259944,0.2047244094488191,0.2047244094488191,0.24409448818897747,0.2992125984251971,0.7244094488188982,0.921259842519685,1.0,0.34645669291338616
713,0.0,0.1487603305785107,0.18181818181818016,0.18181818181818016,0.26446280991735377,0.34710743801652744,0.793388429752065,1.0,1.0,0.4214876033057846
714,0.0,0.14492753623188406,0.2463768115942029,0.2753623188405797,0.3188405797101449,0.36231884057971014,0.7536231884057971,0.9347826086956513,1.0,0.41304347826086873
715,0.0,0.10270270270270217,0.17297297297297307,0.3729729729729726,0.42702702702702666,0.475675675675676,0.8540540540540533,0.9027027027027027,1.0,0.5243243243243241
716,0.0,0.09090909090909176,0.18881118881118975,0.30069930069930173,0.3426573426573437,0.5104895104895101,0.7622377622377621,0.9370629370629378,1.0,0.5244755244755241
717,0.0,0.14406779661016883,0.16949152542372914,0.16949152542372914,0.2542372881355937,0.33050847457627086,0.7881355932203395,1.0,1.0,0.4067796610169499
718,0.0,0.12244897959183683,0.19727891156462524,0.31292517006802745,0.35374149659863974,0.39455782312925197,0.761904761904761,0.9319727891156447,1.0,0.45578231292516963
719,0.0,0.11627906976744216,0.1802325581395347,0.4069767441860463,0.4593023255813946,0.517441860465117,0.8837209302325604,0.9709302325581401,1.0,0.5697674418604654
720,0.0,0.055045871559631046,0.19266055045871477,0.0825688073394486,0.12844036697247516,0.19266055045871477,0.678899082568806,0.9082568807339428,1.0,0.24770642201834583
721,0.0,0.08982035928143797,0.17964071856287328,0.38922155688622767,0.4670658682634727,0.5269461077844322,0.9281437125748502,1.0,1.0,0.5808383233532939
722,0.0,0.1418439716312058,0.2198581560283666,0.2836879432624116,0.32624113475177174,0.3758865248226945,0.7943262411347493,0.936170212765955,1.0,0.41843971631205473
723,0.0,0.10734463276835977,0.17514124293785133,0.3898305084745759,0.4463276836158176,0.49717514124293816,0.8474576271186434,0.9435028248587558,1.0,0.5480225988700562
724,0.0,0.07258064516128969,0.19354838709677488,0.19354838709677488,0.2419354838709668,0.4354838709677417,0.8387096774193543,0.9274193548387103,1.0,0.5080645161290314
725,0.0,0.1353383458646601,0.20300751879699014,0.20300751879699014,0.2857142857142843,0.35338345864661436,0.872180451127817,0.9473684210526307,1.0,0.42105263157894773
726,0.0,0.16129032258064516,0.28225806451612995,0.18548387096774283,0.23387096774193458,0.4274193548387088,0.7177419354838701,0.9193548387096756,1.0,0.4274193548387088
727,0.0,0.0808823529411773,0.17647058823529413,0.17647058823529413,0.2426470588235286,0.3161764705882361,0.7426470588235285,0.8970588235294101,1.0,0.38235294117647056
728,0.0,0.10833333333333241,0.16666666666666666,0.16666666666666666,0.2083333333333324,0.26666666666666666,0.7166666666666648,0.9249999999999973,1.0,0.34166666666666573
729,0.0,0.158730158730159,0.21428571428571555,0.21428571428571555,0.30158730158730035,0.3730158730158746,0.8650793650793657,1.0,1.0,0.44444444444444525
730,0.0,0.1369863013698628,0.23972602739726068,0.30136986301369817,0.3424657534246585,0.4931506849315061,0.7602739726027393,0.9315068493150671,1.0,0.506849315068494
731,0.0,0.005780346820808611,0.09248554913294804,0.29479768786127253,0.34682080924855513,0.4046242774566489,0.7283236994219645,0.861271676300578,1.0,0.4566473988439316
